Timestamp,HRV_MeanNN,HRV_SDNN,HRV_SDANN1,HRV_SDNNI1,HRV_SDANN2,HRV_SDNNI2,HRV_SDANN5,HRV_SDNNI5,HRV_RMSSD,HRV_SDSD,HRV_CVNN,HRV_CVSD,HRV_MedianNN,HRV_MadNN,HRV_MCVNN,HRV_IQRNN,HRV_SDRMSSD,HRV_Prc20NN,HRV_Prc80NN,HRV_pNN50,HRV_pNN20,HRV_MinNN,HRV_MaxNN,HRV_HTI,HRV_TINN,HRV_ULF,HRV_VLF,HRV_LF,HRV_HF,HRV_VHF,HRV_TP,HRV_LFHF,HRV_LFn,HRV_HFn,HRV_LnHF,HRV_SD1,HRV_SD2,HRV_SD1SD2,HRV_S,HRV_CSI,HRV_CVI,HRV_CSI_Modified,HRV_PIP,HRV_IALS,HRV_PSS,HRV_PAS,HRV_GI,HRV_SI,HRV_AI,HRV_PI,HRV_C1d,HRV_C1a,HRV_SD1d,HRV_SD1a,HRV_C2d,HRV_C2a,HRV_SD2d,HRV_SD2a,HRV_Cd,HRV_Ca,HRV_SDNNd,HRV_SDNNa,HRV_DFA_alpha1,HRV_MFDFA_alpha1_Width,HRV_MFDFA_alpha1_Peak,HRV_MFDFA_alpha1_Mean,HRV_MFDFA_alpha1_Max,HRV_MFDFA_alpha1_Delta,HRV_MFDFA_alpha1_Asymmetry,HRV_MFDFA_alpha1_Fluctuation,HRV_MFDFA_alpha1_Increment,HRV_DFA_alpha2,HRV_MFDFA_alpha2_Width,HRV_MFDFA_alpha2_Peak,HRV_MFDFA_alpha2_Mean,HRV_MFDFA_alpha2_Max,HRV_MFDFA_alpha2_Delta,HRV_MFDFA_alpha2_Asymmetry,HRV_MFDFA_alpha2_Fluctuation,HRV_MFDFA_alpha2_Increment,HRV_ApEn,HRV_SampEn,HRV_ShanEn,HRV_FuzzyEn,HRV_MSEn,HRV_CMSEn,HRV_RCMSEn,HRV_CD,HRV_HFD,HRV_KFD,HRV_LZC,HR
2025-08-13 15:42:40,580.0,22.27281821801069,,,,,,,14.60036751959748,14.636027298216112,0.03840141072070809,0.02517304744758186,580.0,14.825999999999999,0.02556206896551724,20.0,1.539488038019051,560.0,600.0,0.4878048780487805,6.310679611650485,520.0,640.0,4.361702127659575,78.125,,,0.03236256016020746,0.02074424759697389,0.0012017365575147116,0.05430854431469606,1.56007394382086,0.5959018156089676,0.4192256377820758,-3.8754862949813953,10.349234152200035,29.822776540415255,0.3483589942434171,965.9158012666377,2.908035115953428,3.6919093806433216,346.9027257390386,0.6990291262135923,0.6830985915492959,0.8556701030927835,0.3333333333333333,50.232558139534866,50.2240862253368,50.24098782676827,49.29577464788733,0.5526932084309133,0.4576659038901602,7.624177255136057,7.0014004201400475,0.48177943343310076,0.5243417104568109,20.620790655717258,21.595102891645244,0.48833278151563836,0.5161955317160241,15.545180001547648,16.021747780378302,1.235663981833539,0.2841528131707052,1.0305599146183813,1.1018668860795515,1.0020763147085159,0.7561462421604572,0.0,6.390947871385952e-05,0.006991391460843098,1.0622946142205973,0.9582310375363612,0.4015352067941631,0.7179704763833169,1.3456519160825318,-0.9292707319882152,0.0,0.00022444857497935162,0.053208852235266155,1.0003165030893517,1.5055777721515087,3.1372477549515234,1.099554272216964,1.7134737742902413,1.4742741772285421,1.9320493411746071,1.3067063310748253,1.6837322359465503,2.83161662596489,0.7492175706834582,103.44827586206897
2025-08-13 15:42:42,579.8536585365854,22.106649890759908,,,,,,,14.58578410779536,14.62133524724222,0.03812453291499773,0.02515848331592805,580.0,14.825999999999999,0.02556206896551724,20.0,1.529794930533455,560.0,600.0,0.4878048780487805,6.341463414634147,520.0,640.0,4.361702127659575,78.125,,,0.03102057947341156,0.019512421638713952,0.0010963810359786194,0.05162938214810413,1.610976000145763,0.6039921312583455,0.37793250329319433,-3.936704009101811,10.338845303326856,29.551282152014533,0.3500586630307182,959.2970683969377,2.8849251232834527,3.68892322723383,341.0129452223385,0.7024390243902439,0.6901408450704225,0.8571428571428571,0.35,50.45871559633027,50.45813847042753,50.458900866340606,49.28571428571429,0.5483870967741936,0.4530516431924883,7.6564149348877635,6.94808333779651,0.48134309117103724,0.5195103303874019,20.490784162018276,21.299696855003383,0.4886621772422293,0.5123817062261125,15.467593950411153,15.830572193193916,1.2192179881529834,0.38624838562884944,0.863500430588946,1.0458363919710199,1.036180439498688,-0.5646907712169735,0.0,0.00015826825238345353,0.01580746440697179,1.1455360687528833,0.6334586474399142,1.0990465496717194,0.9542332710266388,0.9611768052841902,0.9823384384984424,0.0,0.0005962727394519736,0.03687876474243465,1.0121744726985415,1.5242801040937937,3.126361616884883,1.1010749836813885,1.552608009199095,1.4548537418001328,1.9145922418510186,1.307357352134714,1.680074514262509,2.8294869567061904,0.7866784492176312,103.47438378060065
2025-08-13 15:42:44,579.6601941747573,22.114760895158327,,,,,,,14.65284553774253,14.688891952697778,0.03815456979891817,0.02528053640159248,580.0,14.825999999999999,0.02556206896551724,20.0,1.5092468447985432,560.0,600.0,0.4878048780487805,6.341463414634147,520.0,640.0,4.204081632653061,78.125,,,0.02955009066354199,0.01816352940353152,0.00101957964089002,0.04873319970796353,1.6268914486298347,0.6063646721459413,0.40586112547559844,-4.008339574277854,10.386615107869105,29.565987047120736,0.35144745773411423,964.7533459434366,2.8465469009938533,3.6913864034216037,336.6438752152237,0.7073170731707317,0.6923076923076923,0.8585858585858586,0.35,50.2262443438914,50.22572794576432,50.22670211425272,49.30555555555556,0.5489749430523919,0.45662100456621013,7.68561171612126,7.018624063435963,0.4817866215883759,0.5202450646985559,20.522003171954047,21.288415795227408,0.48855291062765943,0.5126351856518084,15.48827465931671,15.847019587680537,1.2017909871691062,0.5209386579989488,1.025677763644679,0.9702856383796914,1.0,1.4020835035077281,-0.24713542748780148,0.0002596037093712646,0.03007733011514219,1.1510705563245136,0.6208811130660183,0.9239476063648153,0.9692553425403495,1.0143405021071101,1.795646571319034,-0.03075544537743945,0.0011047824798678344,0.07218059814498425,1.0222783949393732,1.5525297801622209,3.121728503421066,1.1121467384650192,1.636032698215165,1.4629041843616455,1.9753688724309755,1.315888347027497,1.6748803735509177,2.845376906292191,0.7835752964604251,103.5089188510175
2025-08-13 15:42:46,579.6585365853658,22.126651656637844,,,,,,,14.602578338007541,14.638418614273442,0.0381718723353594,0.025193810463655496,580.0,14.825999999999999,0.02556206896551724,20.0,1.5152564940567153,560.0,600.0,0.4878048780487805,6.341463414634147,520.0,640.0,4.270833333333333,78.125,,,0.028413339599389156,0.016991316258649615,0.0010359647899054875,0.04642324133433745,1.6995604147423917,0.6152893062722455,0.36600883028134884,-4.075052873747661,10.350925068000135,29.60286007860358,0.3502372302068407,962.6373536359296,2.859924101868032,3.6904328197477754,338.6477320921014,0.7073170731707317,0.6923076923076923,0.8585858585858586,0.35,50.2283105022831,50.232015346972524,50.224750436509616,49.65034965034965,0.5471264367816092,0.4551724137931034,7.6564149348877635,6.983442768893,0.48220981567675,0.5191653867596548,20.52728603535869,21.32978792337021,0.4893028860691796,0.512193771205746,15.488748253851217,15.870228822584025,1.219187405181492,0.6640456689277969,1.0156324282932072,0.9850223749379491,1.0,1.693426823512107,-0.2849623681760354,0.0002315497367879428,0.03393770210692571,1.107804231787735,0.6970451650847966,1.2887222839070631,1.131610793478465,1.4531307247830458,0.36731829007745453,0.0,0.0010995225596721243,0.07980318217280405,0.9906492678022429,1.4942026488565157,3.1254703145720075,1.105596272929228,1.6285758760335414,1.4366464692270287,1.9755185151377062,1.3186646543267337,1.6631246485619904,2.836393573711074,0.7492175706834582,103.50921484473618
2025-08-13 15:42:48,579.7087378640776,22.172552167460438,,,,,,,14.84883176812401,14.884860182395064,0.03824774532320257,0.02561429697063763,580.0,14.825999999999999,0.02556206896551724,20.0,1.5100583432511057,560.0,600.0,0.4878048780487805,6.796116504854369,520.0,640.0,4.291666666666667,78.125,,,0.027958484470754108,0.01621084768370267,0.0010424523500800077,0.045211784504536785,1.7246775132469936,0.6183893154659402,0.39448796398617225,-4.122074650727512,10.52518557198518,29.59929109658312,0.35637811696803395,976.5587313238234,2.8497533401577684,3.696668477322311,337.40271467515936,0.7038834951456311,0.6896551724137931,0.86,0.36585365853658536,50.44642857142857,50.430111702552516,50.46265001193279,49.6551724137931,0.5597345132743362,0.4520547945205479,7.8746303990453175,6.9838749848434105,0.48129739178204994,0.5192596833782269,20.522798561222178,21.329153115765322,0.4901370272952259,0.511891610192841,15.521244454164506,15.86980222848044,1.2748029366590627,0.46929304611482037,0.8870159669736566,1.0932618818815119,1.0494097202606087,-0.5843608280075032,0.0,0.0003470783744736595,0.03312965741308265,1.2396330588870732,1.0061335970208596,1.450106648237834,1.1579059816567148,1.634127724697553,2.7636755935717603,-0.7691614752144612,0.001208891450450986,0.08491306553963844,1.0097246100068853,1.510950276064036,3.1280305977280793,1.1111028557456148,1.8988484383739144,1.5326973634116527,2.1125189781098643,1.3224683241883821,1.666222673194383,3.0986826246394963,0.7492175706834582,103.50025121420198
2025-08-13 15:42:50,580.0485436893204,22.295084721679405,,,,,,,14.719601443879744,14.754502838241294,0.038436584255301345,0.02538502814835827,580.0,14.825999999999999,0.02556206896551724,20.0,1.520081112550439,560.0,600.0,0.4878048780487805,6.829268292682928,520.0,640.0,4.291666666666667,78.125,,,0.0291263293928865,0.01620149377299499,0.001185711794018758,0.04651353495990025,1.7977557996186078,0.6261904071147587,0.35172167407607047,-4.122651832785147,10.433009009956582,29.807368158840724,0.35185871286513654,973.5115289058947,2.867187119917118,3.695311209023352,341.8532082546229,0.7038834951456311,0.6875,0.8585858585858586,0.35,50.91743119266056,50.889383774963584,50.945259857986656,49.30555555555556,0.5633484162895928,0.44217687074829937,7.8313504110775,6.913328984437151,0.4835050884315933,0.5205181034685344,20.64000218492589,21.505104193258997,0.4923024621482764,0.5120211715752555,15.595234815199133,15.972846083431476,1.2237158282995524,0.6870803737644016,0.8736203618336624,0.9655780151554447,1.0,1.8214696797893017,-0.33454969597328793,0.0003854018428544659,0.04707486938635476,1.1373179663885375,0.9295269524690724,1.1232842932723417,0.9978273027166797,1.0,2.357219837797903,-0.7135373408217816,0.0005977019489187011,0.06371887539859972,0.9931316260948861,1.4809816819816248,3.1408591188248107,1.1015299972251726,1.78221483293277,1.5195285445652182,2.0965879847264755,1.3234669483152732,1.6548088192845698,3.082281254525872,0.8208884058156836,103.43961837810696
2025-08-13 15:42:52,580.1951219512196,22.4036274988584,,,,,,,14.835701507366824,14.871467082261548,0.03861395356705878,0.02557019345056498,580.0,14.825999999999999,0.02556206896551724,20.0,1.5203133064895324,560.0,600.0,0.4878048780487805,7.317073170731707,520.0,640.0,4.361702127659575,78.125,,,0.032214671135825906,0.017644578284804514,0.0013871953043784822,0.0512464447250089,1.8257546661553898,0.6286225573050289,0.39288233510982085,-4.037326722123255,10.51571522005966,29.896691790972987,0.35173507803411136,987.6699108058579,2.8714821925574765,3.701581933225152,343.34882657702457,0.7073170731707317,0.6875,0.8585858585858586,0.35,50.672645739910315,50.656660514307106,50.68818383714212,49.65034965034965,0.5590200445434298,0.45,7.862738714883139,6.983442768892999,0.4820923428071118,0.5208780207700476,20.758131127516076,21.574337325838446,0.49056256745089116,0.5132117278845291,15.695901821903607,16.034657837875272,1.2303273119916376,0.9534912497057961,1.0194111086267421,1.0937502824030783,1.0159190353182352,2.374216503192589,0.0,0.00038456565144881147,0.0641771109678271,1.114581778973804,0.8270601241544568,1.180309697035241,1.0505744857531543,1.003868674565048,0.29090812884045647,0.0,0.00019394158616751762,0.02619693276769012,0.9899948712406532,1.4864628500752919,3.150929734994488,1.1129478103659292,1.730667161159758,1.5158945293856634,2.09642421460386,1.3304981681086174,1.6598864410329952,3.123331162502079,0.7866784492176312,103.4134857911552
2025-08-13 15:42:54,580.390243902439,22.55372458347576,,,,,,,14.950900031928041,14.987679669379153,0.038859585977580526,0.025760081581318275,580.0,14.825999999999999,0.02556206896551724,20.0,1.5261633909284298,560.0,600.0,0.4878048780487805,7.317073170731707,520.0,640.0,4.555555555555555,78.125,,,0.03672187761184175,0.01999688519590009,0.001607669066913792,0.05832643187465563,1.836379878770857,0.6295923894463081,0.34298576906697964,-3.9121787577619065,10.59788992846975,30.10365556270853,0.35204661129587483,1002.2787288294953,2.880046365088558,3.707958623468342,346.55819265066253,0.697560975609756,0.6805555555555555,0.8571428571428571,0.3170731707317073,50.67873303167422,50.6860806781057,50.67093424858727,49.30555555555556,0.5553047404063205,0.46052631578947373,7.784030640030015,7.191949522280761,0.48417175893599973,0.5170419705901161,20.93227474178958,21.646223353285205,0.4918255353857038,0.5108099740607481,15.791631626761816,16.128904541092435,1.2576439843387337,0.3326488846358162,0.9667062307511083,1.1193922239119618,1.0006405455182255,-0.7996275729859534,0.0,7.15834086358879e-05,0.010103248278564446,1.2564848413937204,0.7981481331293061,1.1981582007316476,1.2037880822053713,0.023386005262974408,0.20734075918872819,-0.490322451002815,0.0002953966398577986,0.022742038559492066,1.0016847449565183,1.5024176453579094,3.1672296191253686,1.0997503882011432,1.9317720862173826,1.5042019235584418,2.051754235041658,1.3359263348457517,1.657334178050806,2.677918590986007,0.824139327751804,103.37871911245588
2025-08-13 15:42:56,580.4878048780488,22.46470210677307,,,,,,,14.686261420450199,14.722061996774713,0.03869969690662588,0.02530198832836617,580.0,14.825999999999999,0.02556206896551724,20.0,1.5366413057617847,560.0,600.0,0.4878048780487805,6.829268292682928,520.0,640.0,4.659090909090909,78.125,,,0.04634536826624399,0.02542023206090878,0.0020001721284482873,0.07376577245560105,1.8231685751411324,0.6282774073048425,0.40529218888295887,-3.67220988419449,10.410069870968162,30.098521377059196,0.3463987380617696,982.8355578926386,2.904522190780246,3.6994509703433076,349.68729299736816,0.7121951219512195,0.6971830985915494,0.8686868686868687,0.35,50.458715596330286,50.458291388323914,50.46233326918823,49.29577464788733,0.555045871559633,0.4477272727272728,7.736421443326912,6.965785489640398,0.4842969700553747,0.5168115460279431,20.922011426652016,21.63770844956396,0.49157994780578734,0.5091961995458951,15.769218012745698,16.061968717748435,1.2477003066762484,0.45132843427836056,1.070702653525415,1.0545317188289303,1.0,1.1163117497970791,0.0,0.00012691259171811604,0.01711016642233327,1.2243036447848268,1.0725136390370453,1.3237211606127428,1.078209419552123,0.795649298543192,1.935310792861575,-0.714020457277416,0.00034952324561418846,0.05789660990058919,1.010387239183331,1.5172571592206838,3.163629738260273,1.104358347639211,1.7649327428528157,1.4735049996487128,1.9729731026143622,1.332583304194636,1.654191536781392,3.0986826246394963,0.824139327751804,103.36134453781513
2025-08-13 15:42:58,580.5853658536586,22.430827833647292,,,,,,,14.702940882294103,14.739028616273794,0.03863809516761361,0.02532646736299715,580.0,14.825999999999999,0.02556206896551724,20.0,1.5317371429202191,560.0,600.0,0.4878048780487805,6.829268292682928,520.0,640.0,4.659090909090909,78.125,,,0.056781437333463074,0.03158407897528217,0.002369831235594416,0.09073534754433966,1.8072268908280527,0.6267160014853375,0.3480901305838716,-3.4551021152503343,10.422067082669775,30.03449110353872,0.34700328521437235,983.3859853607938,2.8949762947568427,3.6996941246502804,347.79655907931954,0.7024390243902439,0.6875,0.8585858585858586,0.3170731707317073,50.228310502283115,50.22581830448034,50.232490773005665,50.0,0.5555555555555556,0.44622425629290613,7.768193328323316,6.94808333779651,0.48364449684008215,0.5165687141880072,20.887352835198456,21.586604151612544,0.4911826017357647,0.5088794570129975,15.754904072007822,16.035232160267924,1.210241712814651,0.7112359791276164,1.1678198716030828,1.1111599685031857,1.0154846898859529,1.7870804624970458,-0.7090711625039927,0.00021949004300758515,0.036168039684450044,1.2271437699960237,0.6628707927614634,1.2430064909505143,1.2568725206564164,0.7154249248510833,0.30151744022469895,-0.44550785552691774,0.0001895848794844351,0.015369094857001015,1.0261999444773213,1.5348490554430276,3.1597144150850607,1.101737530567952,1.8497724058181206,1.3716100600830763,2.0093273277455643,1.3429686706687003,1.6523793267434825,3.0904789018947088,0.7866784492176312,103.34397580238614
2025-08-13 15:43:00,580.4878048780488,22.457782274666336,,,,,,,14.769470366332056,14.805722133725578,0.03870403838845396,0.02544320525292497,580.0,14.825999999999999,0.02556206896551724,20.0,1.5344093361744549,560.0,600.0,0.4878048780487805,6.829268292682928,520.0,640.0,4.555555555555555,78.125,,,0.0639961307924244,0.04016407756262107,0.002590036206972055,0.10259366444707041,1.777300154930886,0.6237824834246071,0.4281653578450446,-3.2147822758189912,10.469226521121113,30.091841613809805,0.34855293490234945,987.8939416372635,2.900504218208406,3.7016804320452756,349.12605413805835,0.7073170731707317,0.6896551724137931,0.86,0.35,49.77578475336323,49.76755957521337,49.78445344403102,50.3448275862069,0.5505617977528091,0.45080091533180777,7.768193328323316,7.018624063435963,0.4833370445087715,0.5166913326378918,20.92058422223789,21.62979628916709,0.49059416433390385,0.5096659059626877,15.760459141350543,16.06814013815151,1.2293220307447936,0.5320683132413686,1.2358157897021202,1.0822973619131286,1.0,1.467431231491787,-0.29912331535174524,0.00021519332541708938,0.028052287492227383,1.2338397236916014,1.28448362598676,1.2810572858686016,1.1030284699660062,0.2548095769238188,0.7491541043034537,-0.6385995214737213,0.000521380539858719,0.05897072045890606,1.0208930165806818,1.5404450409471488,3.1578699383536852,1.1009119052511795,1.7435268804747817,1.3931583708514539,2.049493369719776,1.338105305082472,1.6543361622897026,3.123331162502079,0.824139327751804,103.36134453781513
2025-08-13 15:43:02,580.2439024390244,22.501394823655776,,,,,,,14.75286612233465,14.789158590760332,0.03877920083101668,0.025425284195700743,580.0,14.825999999999999,0.02556206896551724,20.0,1.533419334086009,560.0,600.0,0.4878048780487805,7.317073170731707,520.0,640.0,4.681818181818182,78.125,,,0.07152964573161989,0.04142867320145733,0.0026642266244107224,0.1156138739415698,1.7436380052215465,0.6205015437842254,0.3583365195633441,-3.183782048473047,10.457514327569912,30.12001493879226,0.34719485859555266,989.5403863993453,2.895429595898141,3.702403633852817,348.6210483457006,0.6941747572815534,0.6758620689655173,0.8469387755102041,0.30952380952380953,50.678733031674206,50.68602902958146,50.67099328433245,50.3448275862069,0.562358276643991,0.4436936936936937,7.799835794659097,6.965785489640398,0.4827648983582135,0.5184142936592039,20.914546236428357,21.686709729722864,0.491247911280161,0.5103761104236461,15.782942659738547,16.106451291158784,1.2788057258817538,0.593322936795196,1.0167566319841415,1.1315148275190765,1.0037780571591977,1.5124411853248354,0.0,0.0002048072804030134,0.02736035537032596,1.146411094875323,0.8670413529413481,1.2419660883973282,1.2606351159320761,0.6503453355348991,1.0683315481419622,-0.46088966704857837,6.597175535745315e-05,0.035079061199698225,1.010437609057917,1.5530382239719756,3.1645437956742657,1.099592778576759,1.882306934731014,1.3687579369081755,2.034007916686338,1.351600802953842,1.6552877332642528,2.857126335853303,0.7866784492176312,103.4047919293821
2025-08-13 15:43:04,580.439024390244,22.479599125722423,,,,,,,14.552137502179978,14.587605106300721,0.03874163783752078,0.025079345842344645,580.0,14.825999999999999,0.02556206896551724,20.0,1.5447626936149328,560.0,600.0,0.4878048780487805,6.829268292682928,520.0,640.0,4.456521739130435,78.125,,,0.06948056322433437,0.04063497744637968,0.0024947796313583375,0.1126103203020724,1.7098708450378295,0.6169999609090508,0.362911160012374,-3.203126069806539,10.314994491936744,30.12001493879226,0.34306358610496956,976.0544729399479,2.9200223967484567,3.696444165986138,351.80447284668594,0.697560975609756,0.673611111111111,0.845360824742268,0.3170731707317073,50.458715596330286,50.46641568524004,50.45865821073833,50.0,0.5601851851851851,0.4398148148148149,7.720486469779559,6.840908532983776,0.48243260508496244,0.518638716604965,20.920569794104487,21.668988425929612,0.4905946255002861,0.5103382515306636,15.768261664496286,16.067717463282108,1.2222726437172577,0.36915673638173274,1.1420931714792655,1.103975316100166,1.0004701888545315,0.9861478832495667,-0.19079893483175098,0.00014358315786061629,0.016172431496329548,1.2106097741907096,0.8818129822977534,1.2403794342350087,1.269264340615249,0.30894483856260724,0.18401001516548376,-0.4282023381187903,4.2107685641832184e-05,0.02511590726491295,1.019921955997443,1.5811733542644688,3.1602895577891905,1.094942184515592,1.778934205266193,1.3690317530428062,1.968201512768625,1.3467555215180074,1.6631753051329992,2.8294869567061904,0.7492175706834582,103.37003109505
2025-08-13 15:43:06,580.7317073170732,22.42101818455908,,,,,,,14.552137502179978,14.587605106300717,0.03862444309104716,0.025068808302074752,580.0,14.825999999999999,0.02556206896551724,20.0,1.5407371034805237,560.0,600.0,0.4878048780487805,6.829268292682928,520.0,640.0,4.270833333333333,78.125,,,0.06438782227974618,0.038077958014077234,0.0022133035833621804,0.1046790838771856,1.6909473521647962,0.6150973040162349,0.36510251832241264,-3.2681196940766726,10.314994491936744,30.049381425591093,0.3444390760399992,973.7655578567528,2.913174742757329,3.6954245194227577,350.1563960180528,0.6926829268292682,0.673611111111111,0.845360824742268,0.30952380952380953,50.69124423963134,50.71182475690018,50.670904882961224,50.0,0.5641025641025642,0.4398148148148149,7.720486469779559,6.840908532983776,0.4837431110568809,0.5186128107483633,20.84888340754137,21.639995025863684,0.49226649505339287,0.5103062200956937,15.72071643837047,16.04816834215131,1.2348963984712575,0.6841026992099175,1.1909709386830336,1.1032521585081767,1.0,1.5717158952235362,-0.25372611730310335,0.00012917948632298434,0.028740173354546324,1.211322613471034,1.4157316077432847,1.239268401482558,1.0864516915669256,1.0,1.5368892929899074,-0.6079418648844228,0.0002976925843502889,0.06948872976297896,1.0151032877059465,1.5602476682433288,3.154629456564504,1.0920516146073556,1.8356010724453153,1.3396605281926448,1.8938502382712088,1.3458307265171892,1.664693739352871,2.8294869567061904,0.824139327751804,103.31793364132716
2025-08-13 15:43:08,581.6585365853658,22.03405911038549,,,,,,,14.552137502179978,14.582638211138194,0.037916411631235,0.025018351123338608,580.0,14.825999999999999,0.02556206896551724,20.0,1.5283635287234156,570.0,600.0,0.4878048780487805,6.829268292682928,520.0,640.0,4.1,78.125,,,0.057563419912155904,0.034318597992828125,0.001898078674610541,0.09378009657959457,1.677324345364734,0.6138127599740713,0.3663195462691813,-3.372067856221623,10.31148236668588,29.29275157924825,0.3641967744695541,940.2418038059752,2.8670195437206,3.6802096662786665,335.9315650682288,0.697560975609756,0.676056338028169,0.845360824742268,0.34146341463414637,51.8348623853211,51.92083731505364,51.75406099864611,49.29577464788733,0.5717592592592592,0.42924528301886783,7.799835794659097,6.750296472233955,0.5145538478549316,0.5064835357177582,20.578370940211286,20.846964875746735,0.5212572647133912,0.49810299442790723,15.541480976454297,15.482627857336018,1.2320541610378344,0.5109752797176734,1.0663200587889339,1.0232233194428015,1.0,1.3684615138327834,-0.4461087018887145,0.00015095350442174177,0.02195343136887384,1.1861925936651254,0.8022555425637528,1.2592646048381253,1.3276348834881069,0.4023997954524283,0.7611418625645365,-0.206900029962006,4.517557928761612e-05,0.022697525930374166,1.0424765180066204,1.5757955960158658,3.1174347117867303,1.1290655573610673,1.7134485959179018,1.3634098194184017,1.859656913644329,1.337383975482984,1.6630976105557471,2.2629919862727848,0.824139327751804,103.15330426031534
2025-08-13 15:43:10,582.6960784313726,20.6802012432616,,,,,,,14.621665549733924,14.657480359136306,0.0355144461118391,0.02509312502856667,580.0,14.825999999999999,0.02556206896551724,20.0,1.4192671294546586,570.0,600.0,0.49019607843137253,6.862745098039216,540.0,640.0,4.08,54.6875,,,0.051865636339814204,0.035800560526137955,0.0016822637747463127,0.08427949322950917,1.6876976128707555,0.6154004295988605,0.43398333571783193,-3.329791728543363,10.364403757053912,27.271327589456302,0.3873649545638857,884.7937568554446,2.640708015107797,3.653812159531822,288.0624533924306,0.696078431372549,0.6783216783216783,0.845360824742268,0.3170731707317073,51.152073732718904,51.1935864286643,51.111900404667345,50.349650349650354,0.5684454756380511,0.4377880184331799,7.787397791074732,6.8578205699986805,0.47956644360276884,0.5280827645409001,18.885595071657452,19.67383051875837,0.4907162580661009,0.5163012004261192,14.444882581160842,14.71562454062389,1.2443115734859076,0.7128345587893825,1.172927998536001,1.0318017892686977,1.0014987592781355,1.8245820372643424,-0.15385491689172273,0.00017238128162930775,0.03162974156787817,1.1561384236268166,1.3122538625594342,1.2533633854479245,1.335188845921718,-0.31645503588905655,0.753871501182068,-0.1944536949190341,0.00030032769375631913,0.06004721121214761,1.0657014452811828,1.568922243540379,3.01166914060244,1.1672638516118814,1.7275693974577055,1.397185328067008,1.8743057796133658,1.2525081279197698,1.6819737109382185,2.6458180294298597,0.8650283473791391,102.96963068898796
2025-08-13 15:43:12,582.8780487804878,20.16036116422038,,,,,,,14.739110533215525,14.774805706863276,0.03459259548743341,0.025290424331533074,580.0,14.825999999999999,0.02556206896551724,20.0,1.3678139612826514,570.0,600.0,0.49019607843137253,7.317073170731707,540.0,640.0,4.08,54.6875,,,0.05059851935517746,0.029801919881468387,0.001645539440323215,0.08204597867696906,1.6989407323470487,0.6169003189673551,0.3632343761636915,-3.5131824619933845,10.447365306036724,26.41651045429295,0.40007029983109527,867.0259605678264,2.528533240723275,3.6450022113163874,267.18009915037453,0.6911764705882353,0.673611111111111,0.845360824742268,0.2926829268292683,50.900900900900915,50.94052218855627,50.86286248999564,50.0,0.562358276643991,0.4411764705882352,7.834930670648042,6.930335969507271,0.4848965663403127,0.5209337312556568,18.284085545268557,19.06631166101797,0.4950980392156863,0.5096671496715918,14.065808239140756,14.340441373660585,1.1604073601763534,0.4141478984382645,1.2306140494810824,1.039701329532463,1.0,1.1387967443980678,-0.6964889192523598,8.991391146417542e-05,0.012058404128272084,1.0000580458464234,1.0860250588188114,1.1834244119985713,1.0504295043541687,0.6404956970352842,1.224168342650278,-0.5853144122219406,0.00016442305019400926,0.0606390200626675,1.0680438776504495,1.583387235234158,2.977822678957491,1.193959955610948,1.7457534661727303,1.4074266459085913,1.883576441201942,1.2613127776320114,1.693302936750921,2.3976796962172204,0.8650283473791391,102.93748430831033
2025-08-13 15:43:14,583.0882352941177,19.811423831897546,,,,,,,14.755812080254453,14.7919615507231,0.03398243051969309,0.025310566420347333,580.0,14.825999999999999,0.02556206896551724,20.0,1.3426183339924938,570.0,600.0,0.49019607843137253,7.352941176470589,540.0,640.0,3.923076923076923,54.6875,,,0.04875426336949933,0.028306471756238325,0.0016040775162418461,0.07866481264197951,1.7467956332293348,0.6227368466009598,0.3598365114662787,-3.5646648165111188,10.459496319566982,26.015304699784718,0.402378573592736,854.849301170302,2.4872425884520735,3.638859670960589,258.82549520344776,0.696078431372549,0.6853146853146853,0.8469387755102041,0.2926829268292683,50.2283105022831,50.233098911028904,50.22379448324939,50.349650349650354,0.5537757437070939,0.4547511312217195,7.739572992033209,7.0535434532952825,0.472154691897456,0.5282312566366197,17.868722268955516,18.907798473052694,0.4835284544927609,0.5180059429901397,13.764895583904757,14.269851406813922,1.212389295121142,0.27576182507937763,1.148575410114164,1.083670763076944,1.015311686158077,0.6456646734543776,0.0,2.0321728789108113e-05,0.0044838925414563,1.2246386664361837,1.4864020122095125,1.303395316505365,1.4148180834799204,-0.2019143707065325,0.658855952563953,-0.183565115348951,0.00020999713598932867,0.08507886664956493,1.0750073933328874,1.5950491749820008,2.9556156685350197,1.198729943499618,1.8388640656337465,1.4358978102953799,1.8943750968784987,1.2481848489424852,1.6883260020038005,3.104708878993779,0.8650283473791391,102.90037831021436
2025-08-13 15:43:16,583.0392156862745,19.866015027589278,,,,,,,14.905283884741312,14.942050999282568,0.03407320552907527,0.0255648050486567,580.0,14.825999999999999,0.02556206896551724,20.0,1.3413459527886995,570.0,600.0,0.49019607843137253,7.8431372549019605,540.0,640.0,4.08,54.6875,,,0.04663229284699027,0.02623122722640511,0.001578634859434013,0.0744421549328294,1.790199599335397,0.6278920389010643,0.3523706057417878,-3.6408046990684024,10.565625586427931,26.075275870172575,0.4051970778385481,865.5138086034464,2.48742808998543,3.644244111061061,258.80933603646037,0.6878048780487804,0.6758620689655173,0.8367346938775511,0.2926829268292683,50.450450450450454,50.451787453292475,50.448890961131376,50.0,0.5543237250554325,0.44594594594594594,7.866459694094407,7.0535434532952825,0.47427619110799657,0.5258412599351524,17.955222529815817,18.90846359729945,0.4854644938375061,0.5146235469541595,13.861298716462635,14.270292058292345,1.2144609411293381,0.28347729248076003,1.0054631114209656,1.093991539801222,1.0011379474172246,0.8962327801352634,0.0,6.462781736402613e-05,0.008266501183847362,1.1071268356407689,1.1391366533111658,1.143721564900436,0.9940913242703502,0.42858286122359335,1.1469579173184394,-0.6313540743291427,0.00035232396456682423,0.050833621573667095,1.0903224962503537,1.6109074204134606,2.9637683744122842,1.2025405475880218,1.7251983481298867,1.3694940928077033,1.8035794612515053,1.2555485277796214,1.689836328086057,3.5059740848195227,0.82741841923222,102.90902976290567
2025-08-13 15:43:18,583.1862745098039,19.816359648700598,,,,,,,14.772494744802641,14.808932845602254,0.03398803908134288,0.025337051689421044,580.0,14.825999999999999,0.02556206896551724,20.0,1.341436229359467,570.0,600.0,0.49019607843137253,7.352941176470589,540.0,640.0,4.0,54.6875,,,0.05119913933544898,0.033849133608013664,0.0018819642242865879,0.08693023716774924,1.8869995056522095,0.638889859934871,0.38938273621288993,-3.3858418749879355,10.471496837261547,26.052258775193856,0.4026036200932887,857.0457821421381,2.4879211807131587,3.639974131885727,259.2638656489002,0.6862745098039216,0.673611111111111,0.8350515463917526,0.30952380952380953,50.226244343891416,50.22680361632336,50.22954070549286,50.0,0.5530474040632055,0.4469525959367946,7.787397791074733,7.000707177857033,0.4743484025352477,0.5260353205816828,17.942960642248444,18.888365484614813,0.4852945043081782,0.5150046608441015,13.831005042398624,14.243950499606616,1.176122335287897,0.49537449262753075,1.113179888749361,0.9611449980648908,1.0,1.3342536946958825,-0.4434950221019573,0.00014590805464080855,0.020470427230541818,1.1838739531086542,1.266052968094983,1.2415682474673553,1.3660110310742843,0.49780211961216114,-0.13908172409064434,-0.39789072314746193,0.0003888440189647013,0.061020067773282116,1.0870804110906933,1.605016387176223,2.9586570520600586,1.2054231365601646,1.604458855105799,1.3257624217904695,1.8375300036344198,1.2473760966769611,1.6860352516446884,3.1129584183950945,0.8650283473791391,102.88307976800876
2025-08-13 15:43:20,583.0882352941177,19.788697265227096,,,,,,,14.722390039423164,14.758786609278483,0.03394429704101376,0.02524899174478626,580.0,14.825999999999999,0.02556206896551724,20.0,1.3459006210830566,570.0,600.0,0.49019607843137253,7.352941176470589,540.0,640.0,4.019607843137255,54.6875,,,0.0466186464690794,0.023710806498421957,0.0016865115010694953,0.07191669312293957,1.974401332544,0.6482312303957877,0.3316896954496176,-3.741824364366413,10.436038093506026,25.982146575901044,0.40166188975262185,851.8449573400911,2.4928184034072265,3.6373306668189045,259.05688552391365,0.6862745098039216,0.673611111111111,0.8350515463917526,0.30952380952380953,50.226244343891416,50.23080196707431,50.221947175030515,50.69444444444444,0.5555555555555556,0.4454545454545453,7.771488892352634,6.965260331469922,0.4746042852363279,0.5277882908742251,17.898240276973656,18.875779872491865,0.485825581898766,0.5163504873702967,13.796590749139602,14.226909665839548,1.190422218982864,0.4518870621844202,1.1994639192543666,1.144324010537364,1.0001648268738836,1.2824378914948065,-0.6811021043845792,9.809287875204903e-05,0.013276768605991078,1.1248687829705708,1.2477364815429408,1.1706968195037697,1.0361443538021928,-0.020955321612736277,0.7562543423101906,-0.6265080647409326,0.0004667988327877004,0.0551226216907981,1.0907406379142692,1.6079769917944258,2.9563522672211486,1.1969467115902659,1.63603515814708,1.284290108599928,1.8285960661796525,1.244854791312658,1.683286787360205,2.8481578665426595,0.9026382755260581,102.90037831021436
2025-08-13 15:43:22,583.0392156862745,19.955034936044434,,,,,,,14.789158590760332,14.825391243672847,0.03423164418897632,0.02536989869252529,580.0,14.825999999999999,0.02556206896551724,20.0,1.3493015720658734,570.0,600.0,0.49019607843137253,7.352941176470589,540.0,640.0,4.0,54.6875,,,0.04911476940759827,0.02321715818904286,0.0018051501719439668,0.07403122172552157,2.125140725406627,0.6634331875501984,0.3203072553065971,-3.7628636965483415,10.483134682144732,26.15763409020201,0.40166188975262185,861.4686914735603,2.4952111065361655,3.642209608382695,261.0752764103243,0.6813725490196079,0.6689655172413793,0.8350515463917526,0.3023255813953488,49.99999999999998,49.995655023478086,50.004513115091,51.03448275862069,0.5545454545454545,0.45045045045045035,7.771488892352634,7.035975447302917,0.4722117091257749,0.5313958908293537,17.906120657392254,19.068105941592844,0.4836495126297034,0.5201936134043736,13.802630122571747,14.371805987677016,1.241057913774502,0.46711278433973913,1.2946737845657266,1.2615713389279013,1.1122631453249698,1.026655840337681,-0.9718538332610857,4.2954229800202734e-05,0.012331874490864581,1.0745241620781116,1.0925256583761573,1.1904331302296787,1.193260369004836,0.7162178997270772,0.1323958827632179,-0.4974121991978115,7.652004127746252e-05,0.0460684991972574,1.0908725754245205,1.6545583477145702,2.980332686388295,1.2011204500225723,1.8861682233118542,1.324755400166685,1.8190794099796925,1.2513667069073668,1.6829969875752657,2.8620421707134205,0.9026382755260581,102.90902976290567
2025-08-13 15:43:24,582.8921568627451,19.99921518792446,,,,,,,14.739110533215525,14.775465915349548,0.03431031787348911,0.025286170622958265,580.0,14.825999999999999,0.02556206896551724,20.0,1.3598046683777445,570.0,600.0,0.49019607843137253,7.352941176470589,540.0,640.0,4.019607843137255,54.6875,,,0.05329315472996409,0.02364949850464833,0.0019849916954584814,0.07892764493007091,2.2534581322935567,0.6752153162200808,0.30391307384408994,-3.7444133691464705,10.447832143934361,26.297582246840935,0.39736624849689745,863.0009416567939,2.526111410682442,3.6429813795543198,265.7224903484196,0.6829268292682927,0.6666666666666666,0.84375,0.3023255813953488,50.226244343891416,50.23076286396982,50.22198134535035,50.69444444444444,0.5555555555555556,0.44545454545454544,7.787397791074732,6.965260331469922,0.47494759437916545,0.5273407851216186,18.119994290113663,19.09683970722105,0.4859400076828973,0.5162469509795043,13.94592695790042,14.36950153749705,1.201110960675288,0.6909089431068363,1.2181124585887284,0.967508122190462,1.0071043994696978,1.7391520453671083,-0.8507465616641093,0.00015579821032681766,0.029362001432102738,1.139483771334823,1.6034806565633617,1.2684205575095318,1.2351871134194228,-0.18345041131278705,0.26132989763264636,-0.5207258154029348,9.913862169535677e-05,0.08730047777865049,1.0817864909709578,1.6079330212546803,2.98355800540574,1.1892428768392755,1.848433502501677,1.3646383328933165,1.7894435906344968,1.2533528770590057,1.683090284463719,2.8433022942021475,0.9026382755260581,102.93499285173661
2025-08-13 15:43:26,582.7450980392157,20.15634821633951,,,,,,,14.755812080254453,14.792291275800338,0.03460026115898065,0.025329734637932585,580.0,14.825999999999999,0.02556206896551724,20.0,1.3672274215648241,570.0,600.0,0.49019607843137253,7.352941176470589,540.0,640.0,4.08,54.6875,,,0.059597744543666696,0.024491192797626578,0.0021738341607325236,0.0862627715020258,2.4334357675483353,0.6908860393184457,0.29151218310330496,-3.7094417037069287,10.459729470405025,26.59151586122326,0.3936916017005518,873.8027758138268,2.5422756808827462,3.6483835299630734,270.41185636718285,0.6862745098039216,0.6713286713286714,0.84375,0.3023255813953488,49.999999999999986,49.99558513116316,50.00458304073121,51.74825174825175,0.5565610859728507,0.4487471526195901,7.803274255651334,6.983006246425943,0.47123552598787755,0.5299465551395007,18.254170691092384,19.336338023993893,0.4826684170863956,0.5190491341463168,14.037553859708732,14.532873419652779,1.2017636349009047,0.8710954202333034,1.1656475608405694,1.1022109713753399,1.0034052688370274,2.232787189709301,-0.7635559119897265,0.000287745510017783,0.048591322722052216,1.1247265289590749,1.3189611922761388,1.222805101192307,1.3124627138575415,1.0,1.5054554402318683,-0.43202407076851745,0.0001879396975400651,0.07116127019369207,1.0845485491690323,1.640448149176661,2.9913892416180703,1.1880747922347423,1.8099257924053844,1.3644537496589109,1.8048950589561805,1.255669892237835,1.6800427964041433,3.4645946971890025,0.9026382755260581,102.96096904441453
2025-08-13 15:43:28,582.4878048780488,20.235441670115865,,,,,,,15.016330979251602,15.051988210119022,0.03474480347364394,0.025779648695641727,580.0,14.825999999999999,0.02556206896551724,20.0,1.3698053050406558,570.0,600.0,0.49019607843137253,7.804878048780488,540.0,640.0,4.183673469387755,54.6875,,,0.07234736791906776,0.026364849190991926,0.0026974493070716773,0.10140966641713137,2.8319980289031035,0.7192219574423198,0.25998359054396863,-3.6357236260618846,10.643362933715125,26.647445071337092,0.4009432990528499,887.6150482169481,2.5447598834691334,3.6551947664129107,271.2453968579436,0.6829268292682927,0.678082191780822,0.8484848484848485,0.3181818181818182,50.8849557522124,50.89051237102169,50.879002096183555,50.69444444444444,0.5717391304347825,0.4424379232505644,8.04849831478846,6.965785489640398,0.47340329415078214,0.5287486892694863,18.334590456280257,19.33724700236319,0.48517012947907245,0.5153391065270342,14.094250974438285,14.533478130089035,1.231706492401655,0.2199613289230471,1.2199413347257835,1.1566675251638445,1.0052172152290126,0.7241478251136455,-0.5047878767983935,4.255916807846465e-05,0.0033680703507092745,1.1335129800730062,0.8266511049314946,1.1420517869831333,1.4215756429555482,0.6729848809275634,-0.1912528939885143,-0.1299277596161848,0.00036349479838485846,0.05338444455112182,1.0803488055010253,1.6343225557499783,2.998227626693765,1.1916992662544807,1.9681209249181688,1.3307080144439332,1.7836746783266677,1.2613126796196872,1.6857868024377567,2.6899588327867416,0.9026382755260581,103.0064483711582
2025-08-13 15:43:30,582.6960784313726,20.192495830347266,,,,,,,15.102278560998341,15.139533748585759,0.03465647946652232,0.025920114642803818,580.0,14.825999999999999,0.02556206896551724,20.0,1.3686187202526585,570.0,600.0,0.49019607843137253,7.8431372549019605,540.0,640.0,4.08,54.6875,,,0.07231619218556776,0.02710527090997733,0.002505527770192544,0.10192699086573763,2.667975259341477,0.7094901122002668,0.26971060604869673,-3.6080270714857186,10.705266977627579,26.542544293309714,0.4034477375844065,892.3959558137298,2.5434114364301155,3.6575277034295293,270.0344428302273,0.6813725490196079,0.678082191780822,0.8484848484848485,0.3181818181818182,50.45454545454544,50.463189825291344,50.44596551852608,51.388888888888886,0.5704545454545454,0.43412526997840156,8.053041981047587,7.0535434532952825,0.46989756272820715,0.5312706591768881,18.19466848596929,19.340519436618628,0.4833614357564136,0.5176716618542457,14.051214274048975,14.556925625380993,1.2096189077953095,0.3728640368694123,1.162334064716128,1.1724868515597713,1.0006423955113108,0.9478839124860281,-0.297000269383136,5.756926543587549e-05,0.009384462286586624,1.1533047716066753,1.2547112447186555,1.2706220519657845,0.9432834316593595,0.6424109088558083,2.547246763302245,-0.6431796643177504,0.0005575557404407192,0.08291886258920977,1.0804075540243878,1.631946901328023,2.995920022480426,1.1882289196752243,1.785803333403136,1.33955668222838,1.7845195698350271,1.2649706086085875,1.685828492870596,2.896796505120377,0.9402482036729773,102.96963068898796
2025-08-13 15:43:32,583.0243902439024,20.03395890284718,,,,,,,14.722390039423164,14.758456135658957,0.03436414374994387,0.02525323777047276,580.0,14.825999999999999,0.02556206896551724,20.0,1.3607816970750577,570.0,600.0,0.49019607843137253,7.352941176470589,540.0,640.0,4.08,54.6875,,,0.07195427105370215,0.026584455933738784,0.0024488864005746437,0.10098761338801558,2.7240396874885238,0.7136541616180919,0.2632447192468618,-3.6274285973945957,10.435804413368658,26.395130640398044,0.3962660521391117,865.3655848736727,2.5292856779286597,3.644169729508738,267.0433035832588,0.6829268292682927,0.6758620689655173,0.8469387755102041,0.3181818181818182,50.45454545454544,50.45519185777071,50.45362983710709,51.724137931034484,0.5704545454545454,0.43083900226757366,7.882176911950601,6.840908532983775,0.4675598718994562,0.5324908282086126,18.04855475487133,19.26012961493486,0.48147019767808596,0.5186949395638377,13.926217031392186,14.452244998648352,1.1653648708419244,0.6472302288172969,1.219161479166345,1.1584274695208578,1.0,1.6868762324463762,-0.6974508047816217,0.00017697021366938216,0.028296212851397853,1.054608005400615,0.5342878669634159,1.26155169705961,1.2551511203156243,0.7256167391574806,-0.2653440365757942,-0.07727099508913852,0.00018129701160912032,0.024325619949618408,1.0859143285166621,1.6376087894007967,2.988558221722635,1.1863443518681733,1.9016083947483673,1.3179124098483281,1.7455039021166876,1.2627114974985858,1.6757921341869595,2.850213190871618,0.9026382755260581,102.91164658634538
2025-08-13 15:43:34,583.2352941176471,20.019007195343658,,,,,,,14.772494744802641,14.808274129197523,0.034332723563262765,0.025328533601779616,580.0,14.825999999999999,0.02556206896551724,20.0,1.3566862390537062,570.0,600.0,0.49019607843137253,7.352941176470589,540.0,640.0,3.849056603773585,54.6875,,,0.07188277514981557,0.026073310902360862,0.002364000602937724,0.10029288772622842,2.7569484910835316,0.7167285415695226,0.2607856265684974,-3.646843058626463,10.471031054424884,26.332276247502314,0.3999459184433425,865.2648203880915,2.5175472549516096,3.644119156653926,265.17099913410766,0.696078431372549,0.6870748299319728,0.8514851485148515,0.32558139534883723,50.672645739910294,50.694188221042424,50.65165731981981,51.70068027210885,0.5756207674943568,0.42986425339366524,7.94473485279327,6.85782056999868,0.470760673602855,0.5301451806507413,18.04971070081052,19.172811895802358,0.4852220110495354,0.5164787613371019,13.931408651078975,14.398375237541863,1.1928518761174152,0.5110329253763355,1.1884902445358874,1.060555474195063,0.9955896509686994,1.3292900628587072,-0.7733244932624886,8.98564783055178e-05,0.01572232511283947,1.1499962181613426,1.1667060419147068,1.219633064436283,1.1302016003732294,0.45182797494339955,0.9513702820836203,-0.5766529535719945,0.0001141863539885906,0.05376751600527259,1.0926414893239649,1.640448149176661,2.979437034222418,1.19013114445797,1.71891874237549,1.312829181194169,1.734705272019887,1.2597290619568329,1.695845311549326,2.6699928181404933,0.9026382755260581,102.87443267776096
2025-08-13 15:43:36,584.1871921182266,19.59474231517591,,,,,,,14.772494744802641,14.806956608475206,0.03357123903834623,0.025309388829593844,580.0,14.825999999999999,0.02556206896551724,20.0,1.3264342044914157,570.0,600.0,0.49261083743842365,7.389162561576355,540.0,640.0,3.849056603773585,54.6875,,,0.07490265635988824,0.025364020878921284,0.0023113214016683404,0.10065685949522044,3.195113007473328,0.7441386184261481,0.2597362156666742,-3.674423609973216,10.47009942658778,25.542067460649427,0.41807251390552497,840.1497957848543,2.439524823975203,3.6313268361223,249.24203050361422,0.7044334975369458,0.6938775510204082,0.8627450980392157,0.34146341463414637,51.12107623318386,51.161174892074,51.08235266501524,51.02040816326531,0.5778781038374718,0.425,7.960297521679912,6.820367507350566,0.48121561421788883,0.527254246411227,17.718457162046658,18.397105369081398,0.4951246327338878,0.5120385132435896,13.735174932212292,13.869762338878681,1.149907629141613,1.0808322769367589,1.1238866794871676,1.1537449127347261,1.0037807366724465,2.6457517411511997,0.0,0.00039089063164518827,0.0745784968150899,1.1905282356184457,0.6570523794839165,1.1905282356184457,1.2964803374008453,0.7597153743446681,0.9931985319011636,-0.21019805719915474,0.00015052744447654546,0.025295080794204464,1.100262948890789,1.6451559950361796,2.9492614817868112,1.2125378876868276,1.5959216235075364,1.3428670929935245,1.72284510493843,1.259139463512923,1.715152763304524,2.674147358453677,0.9817671618069684,102.70680495825955
2025-08-13 15:43:38,584.4607843137255,19.17519516788941,,,,,,,14.054783734117288,14.088750955196131,0.032808352044363324,0.024067622611935926,580.0,14.825999999999999,0.02556206896551724,30.0,1.364318052176255,570.0,600.0,0.0,7.352941176470589,540.0,640.0,3.7777777777777777,54.6875,,,0.06872008669560879,0.024866172413828738,0.0021435413532156175,0.09572980046265316,2.7635972900031742,0.7178546948128071,0.26024595795038213,-3.694246936757552,9.962251338867631,25.0649548798187,0.4122219935245677,784.4663051588444,2.515993024792299,3.6015444042227314,252.25300657743017,0.7107843137254902,0.7027027027027026,0.875,0.34146341463414637,49.31506849315067,49.34374623401455,49.296590238143914,52.02702702702703,0.5286783042394014,0.47132169576059846,7.243980088649642,6.8397498651501705,0.468804782593623,0.5368538456347274,17.161804246288696,18.268126289781726,0.47697360037057795,0.5273346769093352,13.17199249378554,13.793234144993624,1.1552239324469353,0.2288482442964086,1.1494170805569812,1.1176675955814321,0.9979505624656175,0.32682511380324764,-0.6805705752812035,3.8235042772751536e-05,0.004617435416604381,1.0587280667046297,1.2578854523087912,1.1814959754096162,1.3916079462425501,0.2869166573041646,0.745888844805938,-0.24340826877449695,0.00014830346271141093,0.07755111758528639,1.116730441947312,1.652122832285051,2.925463607117473,1.23995886849658,1.7290363282487256,1.3096899300024347,1.7864268058777744,1.2597157480742656,1.7096913565508034,2.6518617379787406,0.9778581318198964,102.65872683049568
2025-08-13 15:43:40,583.7745098039215,18.39191923819807,,,,,,,14.142135623730951,14.177271418563654,0.031509491141482056,0.024228656693538554,580.0,14.825999999999999,0.02556206896551724,20.0,1.303020362702873,570.0,600.0,0.0,7.8817733990147785,540.0,640.0,3.7777777777777777,54.6875,,,0.0659979639704833,0.023994050039018926,0.0019295775578133663,0.09183354485614308,2.7505970798242876,0.7186694586805821,0.2613901190929612,-3.7299493944110833,10.024844758788582,24.06233796965874,0.4166197304447037,757.8187582274867,2.40374143382656,3.5865354610906057,231.11327893715676,0.7254901960784313,0.7191780821917808,0.8857142857142857,0.358974358974359,50.458715596330265,50.454237981919626,50.462877998743984,52.054794520547944,0.5445544554455446,0.45792079207920794,7.3808950636286985,6.783796908628119,0.46866531821761853,0.532633669094224,16.45540465530087,17.561116755401095,0.47986221941134766,0.5215835899544256,12.752172127019223,13.311887961411436,1.1688725791483223,0.14610101070251202,1.181092591654913,1.1774529047892002,0.982686715739995,0.11200784698081234,-0.5325816359011032,1.9576758060503e-05,0.0017156498680504383,1.2593303871835397,0.568102610168788,1.2593303871835397,1.211872731230276,0.71525811066443,0.2661613832233023,-0.5364567793155486,0.000163152818119465,0.011771362228490848,1.1053435717171167,1.6208016710844158,2.875813813898179,1.243157288714765,1.6355632189962634,1.2787668537637975,1.7978781216884951,1.2312743778468538,1.7047720310309322,3.4621909610703954,0.9817671618069684,102.77941052985138
2025-08-13 15:43:42,583.6764705882352,18.29461239420784,,,,,,,13.878430654739882,13.910549584680032,0.03134375517274208,0.023777608579549307,580.0,14.825999999999999,0.02556206896551724,20.0,1.3182046911017065,570.0,600.0,0.0,6.862745098039216,540.0,640.0,3.7777777777777777,54.6875,,,0.06257843170017442,0.022928017588956025,0.0018358877478966366,0.0873423370370271,2.729343322307866,0.7164730624696418,0.26389625144039036,-3.7753956407579192,9.83624394135896,23.663618364946554,0.42741321540391225,731.2406333444541,2.4057575743365742,3.571030426094256,227.71571647072093,0.7303921568627451,0.726027397260274,0.8867924528301887,0.3333333333333333,49.53271028037383,49.5495779294681,49.515530653527655,52.054794520547944,0.528205128205128,0.4808184143222506,7.1407351869328535,6.82163129063324,0.46791277320892916,0.5493134351764727,15.886142668548459,17.538452190440285,0.47722618242498344,0.5392196288809282,12.300753099667336,13.306614120461038,1.1776526328723653,0.1592488226619646,1.186263758331239,1.1997805546432319,1.0,-0.019130188240323864,0.0,2.008720811911959e-05,0.001795179967236113,1.1579494870950116,0.7166103530157653,1.2258011225399574,1.2001374895796806,0.6865825761680755,0.7993097566166751,-0.36500848505925193,7.652773906258542e-05,0.02663169709615944,1.1138347590984812,1.626315950221452,2.8688478408516387,1.2629249702426337,1.6272703584659451,1.2157933180500928,1.7829873778314282,1.2308705672618094,1.7048858490063836,2.621641427384275,0.9402482036729773,102.79667422524567
2025-08-13 15:43:44,583.1862745098039,17.564647876284603,,,,,,,13.860671939014544,13.89353404467344,0.030118417809212907,0.023767143612330566,580.0,14.825999999999999,0.02556206896551724,20.0,1.2672291757259064,570.0,600.0,0.0,6.862745098039216,540.0,640.0,3.709090909090909,54.6875,,,0.060094196552597325,0.02225147008593819,0.001721376642614698,0.08406704328115021,2.7006843287434674,0.7148365662346524,0.26638918313416377,-3.805347201274378,9.824212137634749,22.637129742506588,0.44359898816982873,698.6649627625379,2.30421833581829,3.551239074397716,208.64355769192497,0.7352941176470589,0.7291666666666666,0.8952380952380953,0.34210526315789475,49.29577464788732,49.293712599193334,49.29834369968666,52.41379310344828,0.5269922879177378,0.47435897435897434,7.123382220365949,6.766984498868073,0.47044063041910283,0.5516751537095334,15.171245384884926,16.813691409305104,0.47973999869989,0.5394189868656312,11.851355635238905,12.81585537557406,1.1637418010160396,0.17371864270786586,1.1742955498997905,1.1355601300192744,1.0,0.2113090622975693,0.0,1.2511258471755464e-05,0.0018789770885687853,1.0658057602059785,1.0597806664714087,1.1633156325444345,1.1576384445378474,0.1549510839577497,-0.09741881679924536,-0.4418369401951581,5.145021369132443e-05,0.036426967419486575,1.1343203263626345,1.6227714433035656,2.8184178871161345,1.2836079965725369,1.6789835200331873,1.1859995071236524,1.725352825171631,1.1992174150691142,1.7168813997171113,3.0471339052920814,0.9778581318198964,102.88307976800876
2025-08-13 15:43:46,582.439024390244,17.089798557320513,,,,,,,13.879735545878725,13.913793312906924,0.02934178144263572,0.023830366724498647,580.0,14.825999999999999,0.02556206896551724,20.0,1.2367964032794807,570.0,600.0,0.0,6.829268292682928,540.0,640.0,3.727272727272727,54.6875,,,0.05333959741976023,0.018188619417375772,0.0014063671398579355,0.07291622120872795,2.969472692311603,0.733554654666623,0.24944544733481916,-4.006959187222779,9.838537603584523,22.13347264703351,0.4445094432528262,684.1163670612934,2.257235347752498,3.542100090737715,199.17212543396545,0.7414634146341463,0.7394366197183098,0.9047619047619048,0.34210526315789475,49.767441860465105,49.76578830276143,49.769352739794556,52.112676056338024,0.5318066157760812,0.4728682170542635,7.1748053989160745,6.732027706741481,0.4704616169827068,0.5303161587556534,15.181394178133957,16.106392588817055,0.48058295663656364,0.5208900116595413,11.873343288732851,12.343744959886282,1.1810078110970403,0.13399185544506498,1.1130738784774534,1.180069806199986,1.1910646086804055,0.07576582004388888,0.0,1.7358940019476046e-05,0.0011515927892157228,1.2585274728055222,0.5244047179880473,1.3418708466928089,1.2383152069919947,1.1687778219538436,0.45462604337788903,-0.6856427997715002,9.532349706045268e-05,0.00969108261571474,1.1390949993406942,1.6159953129802596,2.778318541899198,1.2867527100217662,1.7641127131015846,1.203980901131436,1.7309048669773393,1.198048817865884,1.7189212169122763,3.415795551509821,1.0114437204226685,103.01507537688441
2025-08-13 15:43:48,582.0975609756098,17.006061315689163,,,,,,,13.753638121470066,13.787639750914225,0.02921513927525583,0.023633273052391286,580.0,14.825999999999999,0.02556206896551724,20.0,1.2395190681571635,570.0,592.0000000000002,0.0,6.862745098039216,540.0,640.0,3.7962962962962963,54.6875,,,0.05970258262528965,0.02286180478593431,0.0016201501338069608,0.08418453754503093,2.8823848463594226,0.7286558564242316,0.2715677421605525,-3.778287674215885,9.749333564428648,21.98375247477697,0.44347904551848155,673.327927209534,2.259324114540775,3.535196737769208,198.55247529896246,0.7463414634146341,0.7464788732394366,0.9056603773584906,0.3783783783783784,50.95238095238095,50.95893124925118,50.94554713252199,51.40845070422535,0.5442708333333334,0.4661458333333336,7.1748053989160745,6.656345145278248,0.4734052675368926,0.5296000882730302,15.116572092668674,15.998374171590516,0.4850159061206699,0.5191713630650218,11.831918364009375,12.252650872918966,1.171509613535458,0.05899674016534817,1.1647767738370618,1.188542471164522,1.0104390009739568,0.010651621157071745,0.0,1.0889800301835993e-05,0.0005516627163270189,1.0673752272318642,1.1959013015609083,1.119063580737045,1.0398099049683585,0.24557567745347608,1.115173108075442,-0.5910481243209272,0.00010557628157341729,0.0584114927045286,1.1496019549662964,1.6390601684654436,2.7749322571892203,1.279961469835732,1.6102044991398807,1.2109889051562546,1.6627606441082754,1.1919426840087384,1.7058946667889676,3.02254575070541,0.9778581318198964,103.07550490237156
2025-08-13 15:43:50,582.4509803921569,17.044495493275925,,,,,,,13.737739631980162,13.77074578890808,0.029263399096349844,0.023588546985140575,580.0,14.825999999999999,0.02556206896551724,20.0,1.2457771808448432,570.0,600.0,0.0,6.862745098039216,540.0,640.0,3.849056603773585,54.6875,,,0.06184626804916281,0.024468751989786423,0.0016332369236323257,0.08794825696258154,2.8543920034363524,0.7270107482982779,0.2782175887828783,-3.7103584044715676,9.737387729332996,22.063146241743787,0.4435440124437772,672.2308389626772,2.2749210427140887,3.5344885420525594,200.76766261528482,0.75,0.7608695652173914,0.9150943396226415,0.3783783783783784,50.717703349282296,50.70402059742697,50.73118808278142,52.17391304347826,0.5454545454545454,0.46052631578947373,7.191949522280761,6.581552376390262,0.4715479010865881,0.5315244653182077,15.101180598210464,16.085296597352652,0.48369861698580785,0.520027284079971,11.810834439461999,12.289296121177427,1.1783322032386034,0.07128883388031149,1.1815831408522266,1.1659060920076827,0.9998183124521254,0.15682896604146324,-0.18249140376746542,1.582596322564498e-05,0.00072097127461633,1.249055538934671,0.7716378526263457,1.249055538934671,1.2536476969271027,0.5975813686908173,0.02601655690332194,-0.4812189020413676,0.00011405815364183015,0.0348566309384407,1.1565569051989688,1.6529230243738395,2.782075209429451,1.2813758082213071,1.825972239439429,1.2091007398437472,1.6588237060144557,1.1920367814465922,1.69784390329469,3.0087603759295827,1.0154680599668156,103.01296078101329
2025-08-13 15:43:52,582.4509803921569,17.118458075617006,,,,,,,14.072640679214206,14.106917426890078,0.029390987483262028,0.024161569005351023,580.0,14.825999999999999,0.02556206896551724,20.0,1.2474196036817946,570.0,600.0,0.0,7.804878048780488,540.0,640.0,3.9423076923076925,54.6875,,,0.06355518854576885,0.025892253404413878,0.0016885912974995481,0.09113603324768227,2.491679915855744,0.7004433638891302,0.28410555607622257,-3.653811451369557,9.975096974192654,22.131018574038134,0.4515922736021976,692.2096073504861,2.2849426422202503,3.547207732643602,202.27243222235253,0.75,0.7664233576642335,0.9150943396226415,0.3684210526315789,50.47169811320755,50.465303172927214,50.47783931239288,51.82481751824818,0.547029702970297,0.4591029023746704,7.377906040127225,6.713709230046812,0.4688030223798961,0.5316887962585036,15.152929551606439,16.12980809335539,0.4816459289193723,0.5196079578670278,11.893864400791303,12.338782046953465,1.191895171265113,0.16764743230685752,1.2522574987299953,1.2272018559546896,0.9890507633272487,0.204739105650789,-0.41404580728223356,3.117143899748742e-05,0.002659848946215474,1.170623602184901,0.6447028644646453,1.170623602184901,1.2429624083665005,1.0,0.7401470699483799,-0.38779512211153444,0.00016277626654785996,0.014774159452012313,1.1581239245974957,1.6546583827269077,2.78909479196827,1.2760534268064219,1.763751108425019,1.2303069882573512,1.6546755174159757,1.2031827289687778,1.6935248051553817,3.0332177350763447,1.0154680599668156,103.01296078101329
2025-08-13 15:43:54,582.3529411764706,17.047257909164696,,,,,,,13.699807628723821,13.733587394363736,0.029285394639743983,0.023524922190737874,580.0,14.825999999999999,0.02556206896551724,20.0,1.2459790850126489,570.0,600.0,0.0,6.862745098039216,540.0,640.0,3.923076923076923,54.6875,,,0.06436936857827004,0.026134958291746852,0.0016924553266158735,0.09160331157476181,2.8229014673651327,0.7252133496167953,0.2853058240194392,-3.644481462695822,9.711112776572685,22.08137636931984,0.44017401416877167,673.0750122936199,2.276859775583146,3.5350335777664452,201.10479057926625,0.7450980392156863,0.7608695652173914,0.9142857142857143,0.3333333333333333,49.75845410628018,49.760849766614676,49.75625986367655,52.17391304347826,0.5328083989501312,0.46842105263157896,7.08854884672986,6.637725961546924,0.4684350971788898,0.5326058901414268,15.099734490634239,16.114955950429778,0.47888337601422587,0.5222264126236923,11.79511565098292,12.323782114774794,1.1920801410910795,0.14520551245849722,1.224736927357033,1.2384543896353288,1.0,-0.048942190921570816,0.0,3.626034312892292e-05,0.0020747522244072454,1.0794811953994394,1.200597762523759,1.2024924308989275,1.1745633924367946,0.09816880349426604,0.1387078599200664,-0.523262610787666,0.00014326117899208423,0.07296461195515719,1.157450789891885,1.662783893139393,2.7806895134397265,1.2756550959002302,1.710745259143344,1.2111805460966518,1.6733972758950901,1.2007459176346997,1.6885878853091787,2.99800592882393,0.9778581318198964,103.03030303030302
2025-08-13 15:43:56,581.6585365853658,18.105118426766783,,,,,,,13.844373104863458,13.87764766116218,0.031147610586498745,0.023817526741331058,580.0,14.825999999999999,0.02556206896551724,20.0,1.3077600762151194,570.0,592.0000000000002,0.0,7.317073170731707,530.0,640.0,4.183673469387755,70.3125,,,0.06309003681088578,0.026524766604964584,0.0017418828738668638,0.09135668628971723,2.378533155465253,0.6905902498565883,0.2922715550704872,-3.62967639357963,9.81297876812541,23.615201169224008,0.43035834427663394,728.0184428353022,2.406527286692098,3.5691124913629433,227.32250397784287,0.7560975609756098,0.7588652482269503,0.9158878504672897,0.3684210526315789,49.28909952606635,49.26403650357219,49.314011283854235,52.85714285714286,0.5268542199488492,0.4780361757105943,7.1231254555958525,6.750296472233955,0.4618375341589163,0.5579668932700941,16.048567099670226,17.324007051207907,0.471411877468492,0.545473064997908,12.415623669570031,13.147009598637926,1.1715320932444167,0.2613285493041444,1.179627696111841,1.15681441218464,1.1381352967062623,0.3714145776546105,0.0,3.713300238538329e-05,0.005115173954870267,1.126804673108281,1.0338897650346883,1.1883402100008464,1.4736816961568566,-0.09497007160130089,-0.8587195734359883,-0.18593262510955147,0.00014822594646597665,0.045993647227820206,1.1491840691419504,1.6767503604543967,2.868933241678267,1.2601129615083704,1.8056199132074922,1.2437345509921394,1.6622191697203437,1.2742513066971883,1.6759981024688313,3.02505999461663,0.9739828418884957,103.15330426031534
2025-08-13 15:43:58,581.0731707317074,18.452441228163117,,,,,,,13.985286385845578,14.017537414351878,0.03179049039224673,0.024094324809633947,580.0,14.825999999999999,0.02556206896551724,20.0,1.3194181884497351,570.0,592.0000000000002,0.0,7.804878048780488,530.0,640.0,4.270833333333333,70.3125,,,0.054404020587047845,0.02330673448772239,0.0015924711312727948,0.07930322620604303,2.3342618252980487,0.686025313090001,0.29505581271032205,-3.7590129263648784,9.911895761224356,24.07516141343545,0.41191593651614977,749.6797954520295,2.4289159201631465,3.581845916336868,233.90617135036337,0.7609756097560976,0.7659574468085106,0.9259259259259259,0.358974358974359,49.28909952606635,49.28910900866115,49.28969361432948,53.191489361702125,0.5343511450381679,0.47368421052631576,7.191949522280761,6.82288239221013,0.47096406226048454,0.5327891250139395,16.52201803747942,17.511034151419377,0.47898858637772557,0.5230487238170702,12.74168783878003,13.28886829624906,1.2059644500440758,0.15585325631941327,1.2378343886029377,1.2182889152085266,1.0,0.13733101211339838,0.0,1.9938001464726372e-05,0.0019267967205231806,1.0438972951887855,1.1692902012813162,1.1251639658792811,1.0262073464091404,1.0,0.7189228529299725,-0.3262728800987775,0.0002098272985399604,0.05524813969842571,1.1307453981056304,1.6744427427430963,2.892261516372132,1.239925975424973,1.8572020501817141,1.260495997685106,1.674405257085518,1.2713542633326385,1.6799414251319005,2.794982839254528,0.9739828418884957,103.25721961047682
2025-08-13 15:44:00,580.2926829268292,18.41547183921,,,,,,,13.985286385845578,14.019604465851524,0.031734799319418715,0.024100401051600065,580.0,14.825999999999999,0.02556206896551724,20.0,1.3215108252969283,570.0,590.0,0.0,7.804878048780488,530.0,640.0,4.361702127659575,70.3125,,,0.050377085480091746,0.021789384302079152,0.0015566898570887188,0.07371786780891319,2.312001329715624,0.6833768661171271,0.2962880021673258,-3.82633238641017,9.913357387356816,24.14126920798239,0.4106394449252458,751.8491879480582,2.445577864275523,3.5831008449544046,235.969470018461,0.7560975609756098,0.7588652482269503,0.9252336448598131,0.358974358974359,50.23696682464453,50.23388044378343,50.23990696517869,52.4822695035461,0.541772151898734,0.4636591478696744,7.260121183968716,6.750296472233955,0.4752518660494348,0.52484749769524,16.642632161615126,17.4878150066111,0.4846958025500574,0.5159333082367401,12.839130906582763,13.255002379639668,1.1998415525127162,0.1259671754498093,1.132415068712854,1.1828350554326081,1.00482944291415,-0.34165888019690427,0.0,2.7723544766498424e-05,0.0014363564139039933,1.1338745608990184,1.2648518204377552,1.2041207707443649,1.4971578235673664,-0.317228593559701,-0.7125870545541577,-0.09668241984145069,0.00027471026215067937,0.06239819752788786,1.1166414029760237,1.6749158418136074,2.8878257259127924,1.2339624203133372,1.7570119826900086,1.2647075749425611,1.6742843368836964,1.2710025928339426,1.6855137597145173,3.0413808918003724,0.9739828418884957,103.39609952925353
2025-08-13 15:44:02,580.4878048780488,18.464488905734058,,,,,,,14.072640679214206,14.107259773787508,0.03180857332500405,0.024244821743330633,580.0,14.825999999999999,0.02556206896551724,20.0,1.325271265468181,570.0,590.0,0.0,8.292682926829269,530.0,640.0,4.361702127659575,70.3125,,,0.0476281468438872,0.02073593422743198,0.0015989397383600746,0.06994493537764217,2.296889367100662,0.6809377489125752,0.29646083902252346,-3.8758871307196965,9.975339050005346,24.16099131659461,0.4135064109142927,756.0020220237864,2.446657540815332,3.5854930670405087,236.45468639327987,0.7658536585365854,0.7659574468085106,0.9259259259259259,0.3684210526315789,50.943396226415096,50.94551336489111,50.94078294299224,51.77304964539007,0.5454545454545454,0.4678217821782178,7.293968086257969,6.82288239221013,0.4795590765924478,0.5226870067529087,16.731535795893357,17.440794733596984,0.488993001289324,0.5146755890245882,12.90632132973239,13.2426025591157,1.1453254439776523,0.16621200097412214,1.139295988913286,1.1429438153083609,0.999282884386762,0.20861690000215627,-0.4661411591880106,3.137444951164775e-05,0.0029200938720939772,1.166201611167932,0.5713351629093673,1.1917570297188527,1.25005594495931,0.24133936540847944,0.011895505886496238,-0.37112326618698305,8.305417552480096e-05,0.010493510094266347,1.1239273398168632,1.6568265346782438,2.889350351201978,1.2356849519435715,1.7208024822907375,1.262989819967423,1.6620717002819423,1.267917557247804,1.6838890487972549,3.049549560664931,0.9365219633543227,103.36134453781513
2025-08-13 15:44:04,580.9756097560976,18.389874118927384,,,,,,,14.142135623730951,14.175562970505403,0.03166672989819499,0.024342047043365615,580.0,14.825999999999999,0.02556206896551724,20.0,1.3100287101639059,570.0,590.0,0.0,7.804878048780488,530.0,640.0,4.183673469387755,70.3125,,,0.04751400289422407,0.02053913655391983,0.001695202885833345,0.06974834233397724,2.313339841209448,0.6812205323348319,0.29571282545766264,-3.8854231126623064,10.023636703581289,23.92688644411738,0.42764782372222787,747.9002884263284,2.404797705644628,3.5808138106701026,230.1572864961321,0.775609756097561,0.7730496453900709,0.926605504587156,0.4166666666666667,50.934579439252325,50.970254407099716,50.8998896107736,51.06382978723404,0.5447761194029851,0.45588235294117646,7.394579295380164,6.768515929047769,0.4949931535608723,0.5054675175677613,16.82610519674574,17.01111633073309,0.5025894085823147,0.49805905367404335,12.98188551003785,12.931588658075809,1.1899055764953308,0.20523848935526678,1.2162817101644174,1.225713866159805,0.9956260944173245,0.3225622130834893,-0.3717169027211246,2.505306290058626e-05,0.00342234549459147,0.9993869824544458,1.158910583546343,1.1556742067482078,1.234958511426967,0.7717587356280111,0.30146495679780605,-0.43158721146877094,0.00014664841461995454,0.06711088253634194,1.125791463988826,1.6544525444028275,2.885046290501725,1.266425360646405,1.7023530840746788,1.253623409049964,1.6703224471175764,1.2675108313555652,1.6923541350269273,2.3684229118751152,0.9739828418884957,103.27455919395464
2025-08-13 15:44:06,581.3725490196078,17.702479060828264,,,,,,,13.984509375128402,14.018298950219956,0.030449458081019946,0.024054299431080894,580.0,14.825999999999999,0.02556206896551724,20.0,1.26586343403025,570.0,590.0,0.0,7.352941176470589,530.0,640.0,4.183673469387755,70.3125,,,0.04757591683168471,0.020399491709663493,0.0017272722768779548,0.06970268081822616,2.3495186067865723,0.6854427057148632,0.2926643777570367,-3.892245294635346,9.91243424840079,23.00504960801432,0.43088080301063875,716.3963531091,2.322884206624491,3.562123476322725,213.56300347821542,0.7658536585365854,0.7642857142857143,0.9252336448598131,0.40540540540540543,50.47169811320755,50.47229202574985,50.470812999220335,52.4822695035461,0.5378787878787877,0.47355163727959715,7.243138421098419,6.82163129063324,0.4882471342549206,0.5135557471820497,16.044999668837693,16.486063602151912,0.49600750770718005,0.5072910472138231,12.438034736934476,12.615961052562437,1.1547985471151079,0.1932208016792516,1.1892985653204837,1.1514480602320856,0.9943697383912786,0.28334317716826796,-0.4261977515890909,4.350122615703447e-05,0.0037023006376466065,1.255954773465793,0.5541676809609921,1.2836131118274856,1.4585339039362077,0.4183128720595102,-0.5816871279404898,-0.1499435788770828,4.897106332992605e-05,0.014390184270413057,1.1296352414583328,1.6333117253389977,2.830503986908516,1.2742754307157413,1.7337247213789844,1.2718446338430534,1.6663612421260376,1.2610605819830447,1.6945417911620273,2.7996305686630585,0.9778581318198964,103.20404721753793
2025-08-13 15:44:08,581.1219512195122,17.6626823873175,,,,,,,13.967749969686825,14.001766112332557,0.03039410634936697,0.0240358326516058,580.0,14.825999999999999,0.02556206896551724,20.0,1.2681564864349009,570.0,590.0,0.0,7.804878048780488,530.0,640.0,4.019607843137255,70.3125,,,0.048002207266868664,0.020059740550854244,0.0017614067864350621,0.06970124943100822,2.407617872305345,0.688685033033479,0.2890294779212312,-3.909040430188307,9.900743766618353,22.96125352691965,0.43232167686168754,712.3255184987825,2.330829466048715,3.5596486128416593,214.07506519183718,0.7707317073170732,0.7714285714285715,0.9351851851851852,0.3684210526315789,50.47169811320753,50.45623068576266,50.48725666160989,52.142857142857146,0.5452261306532663,0.467005076142132,7.310832774866961,6.732027706741481,0.4887245016518168,0.5123200572756078,16.034781304161378,16.43487000420741,0.49762220959604603,0.5052756566033499,12.445283965519879,12.558366715053584,1.1534745820349193,0.25532038982781935,1.1208500984615792,1.1100949436661667,1.007677048395901,0.4656403158492355,-0.2452997558882882,3.711471512893245e-05,0.004977063888658404,1.2410268289732227,0.5370742731799929,1.323187285183126,1.3972883805560385,0.34219639587870887,0.0915990631884025,-0.3123247450176057,0.00016375859955158377,0.013457161102841496,1.1316366245259828,1.6486586255873816,2.822398784111038,1.271764605079619,1.7336310158218737,1.2442712779033223,1.6663433766850728,1.2637189677748344,1.6878592875357874,3.0332177350763447,0.9739828418884957,103.24855200201462
2025-08-13 15:44:10,581.4146341463414,17.862458729155655,,,,,,,13.879735545878725,13.911710539618204,0.03072240992933056,0.023872353275485685,580.0,14.825999999999999,0.02556206896551724,20.0,1.2869451777458043,570.0,590.0,0.0,7.352941176470589,530.0,640.0,4.1,70.3125,,,0.04909034411117663,0.01999176090657046,0.0017737792929503227,0.07074924235835138,2.4686975332751433,0.6938638842594179,0.28483551373142163,-3.91243504497626,9.837064860468395,23.162371645690058,0.4265322298733118,715.8111076366876,2.354601903538448,3.5617685432556367,218.15265746962712,0.7658536585365854,0.7642857142857143,0.9345794392523364,0.39473684210526316,51.184834123222736,51.15962206268604,51.2101409193067,51.42857142857142,0.5445292620865141,0.4615384615384615,7.260121183968716,6.674912392349771,0.49767337591708166,0.510740871548033,16.340119548777242,16.461867545147776,0.5048352329822704,0.5031670165630477,12.643355299805576,12.56080289072984,1.127911824635469,0.15948849046824454,1.1407043245193123,1.141301808386435,0.9998649026222506,0.28218065213679755,-0.18544112810969937,2.8709911976823146e-05,0.0028694055457746956,1.0859711893635842,1.0046906852082778,1.2645650719911568,1.330728295535518,0.4525966251083364,0.5019731410661272,-0.433280726184385,0.00015687440820563657,0.055240514011229556,1.1356836797566516,1.6575571607782988,2.8480345523735324,1.2668170975623223,1.6690063994361326,1.2577359704560924,1.6755716976999695,1.261405158099879,1.6848564699385253,3.02254575070541,0.9778581318198964,103.19657689403473
2025-08-13 15:44:12,581.8048780487804,18.15405144674691,,,,,,,13.737739631980162,13.771447188105759,0.031202989407085744,0.023612279907402813,580.0,14.825999999999999,0.02556206896551724,20.0,1.3214729593859815,570.0,600.0,0.0,6.829268292682928,530.0,640.0,4.183673469387755,70.3125,,,0.051481359713933694,0.020336972243178267,0.001786028967539904,0.07360436092465186,2.531417120422257,0.699433553490597,0.2776538803068809,-3.8953147567096043,9.737883693461994,23.58819055178239,0.41282877006121915,721.6208672822961,2.4231555962123883,3.5652791932741135,228.55180900579631,0.7794117647058824,0.782608695652174,0.944954128440367,0.40540540540540543,50.24390243902439,50.23704657899582,50.2536632375584,52.17391304347826,0.5413333333333331,0.46753246753246747,7.105815283093025,6.658451424277128,0.4961092152203683,0.5246723388946021,16.61434691664775,16.91015097670364,0.5014034580692067,0.5150667717128311,12.777502383176476,12.816541332993346,1.188405847491609,0.23373436786714974,1.1448303249009832,1.1806303830133058,0.9977959996594306,0.44785891474860184,0.0,2.9160341875682923e-05,0.004177206367934052,1.3079518011025624,0.32074127117906204,1.3925753965855818,1.3303018513912153,0.3520138845814351,-0.6479861154185649,-0.6455116079078561,0.0002068784522305917,0.012355049648883162,1.1191342285264971,1.6337963562661408,2.8738937379289826,1.2397715779218066,1.807537353495759,1.2431781568904985,1.6838979326508174,1.2577876640049925,1.6686538476630213,2.981671579947823,0.9402482036729773,103.1273580950784
2025-08-13 15:44:14,581.6585365853658,17.909918596197734,,,,,,,13.808920106576181,13.84280322061033,0.030791121370517743,0.02374258678057634,580.0,14.825999999999999,0.02556206896551724,20.0,1.3139810157640308,570.0,600.0,0.0,6.341463414634147,530.0,640.0,4.183673469387755,70.3125,,,0.05267483812555424,0.020333945679806464,0.0017771664620922151,0.07466175891708199,2.600264133215876,0.7055129545508562,0.2733399466712242,-3.895463588530077,9.788340027924544,23.395766193582904,0.4195857454634308,717.3766590525059,2.4216198226303627,3.562717352095987,226.62260472002265,0.7853658536585366,0.7857142857142857,0.9454545454545454,0.4166666666666667,50.724637681159415,50.708170478696566,50.740951832740464,52.142857142857146,0.5408970976253297,0.467866323907455,7.140393663858936,6.6953406341198605,0.48443120572878917,0.5230048511627561,16.283708836023838,16.871013795839147,0.4926581160237843,0.5147506572252162,12.562877542462937,12.834693075922996,1.1950850111423534,0.20233506901433262,1.1152271195814727,1.1460666109754851,1.0,0.32275902317605887,0.0,3.8618562845220716e-05,0.005023219661366274,1.2476112525723957,1.2579769345551086,1.1989937672519848,1.2362838391771918,1.0211596010796788,-0.018142322419554713,0.0,0.0001744254278223065,0.08016496432907037,1.1151653670720245,1.6215267097531045,2.853055187973058,1.2531799506572863,1.608382664204597,1.2859700311702527,1.711669992272406,1.2610407515628892,1.669834465896382,2.9924812563076006,0.8990610848201498,103.15330426031534
2025-08-13 15:44:16,581.3170731707318,17.787469460916896,,,,,,,13.755569282094791,13.788007365356266,0.030598567084735784,0.023662764981366383,580.0,14.825999999999999,0.02556206896551724,20.0,1.293110382866546,570.0,590.0,0.0,6.341463414634147,530.0,640.0,4.019607843137255,70.3125,,,0.05257878413031716,0.02007896849021293,0.0016585604951803226,0.07431631311571041,2.8297633150914008,0.7220611989520556,0.2701825164409058,-3.908082355487409,9.74959350709348,23.096206467981474,0.42322860886240393,707.4195128476326,2.368940453894559,3.556647144808884,218.85415133400997,0.7853658536585366,0.7857142857142857,0.9454545454545454,0.4444444444444444,49.519230769230774,49.523683299787635,49.515260809561184,52.85714285714286,0.531413612565445,0.47409326424870485,7.071067811865474,6.713709230046812,0.4748220459959854,0.5320521389365683,15.799356055937265,16.84681279736164,0.4834193393514611,0.523284756314101,12.239682426073838,12.82359140519854,1.1809217689013438,0.15043822191836798,1.1720564287230415,1.1545053719052638,0.9991328019764296,0.19367555059783204,-0.45499034003728156,2.0764541993895073e-05,0.0017741074601426827,1.1361166800054774,0.7663574647237672,1.2019853512088914,1.4872034078743703,-0.1128429820406538,-0.8928241781417525,-0.1191763365976333,0.00010566917986417508,0.03304010515933237,1.1053307372507586,1.5819672510887093,2.843002875979318,1.255243612493354,1.7643208810514894,1.3030265516379373,1.7287145807737396,1.260907963879403,1.668180251699239,2.7605200641291447,0.8990610848201498,103.21389611479398
2025-08-13 15:44:18,580.829268292683,17.516133166038312,,,,,,,13.684111295980616,13.717422529959833,0.030162178068356606,0.023563568380311012,580.0,14.825999999999999,0.02556206896551724,20.0,1.2800343980820488,570.0,590.0,0.0,6.341463414634147,530.0,640.0,3.9423076923076925,70.3125,,,0.05444074333282089,0.020832087682229394,0.0015754655471517701,0.07680708630200533,2.624244327053716,0.708927363187851,0.27122611578204725,-3.871260803948448,9.699682491335723,22.837982769259515,0.4248430313317601,695.9293167429557,2.3545082830968567,3.5495352419468373,215.08887839777927,0.7853658536585366,0.7841726618705036,0.944954128440367,0.4444444444444444,50.48076923076924,50.48111681259216,50.480124248647115,52.51798561151079,0.5418848167539267,0.468586387434555,7.140393663858935,6.639929965800762,0.47554076757494634,0.5246651050764484,15.745541094648686,16.542411934349957,0.48550539812093624,0.515916166333111,12.225123435739768,12.599019409979837,1.1876558232518972,0.18264185901553853,1.1804335525011647,1.167172402052053,0.9990767314561968,0.28605509012868824,-0.26668936087405876,1.9805156350104895e-05,0.002505342184980061,1.249342174684212,0.23609789290265049,1.2833805431844583,1.3026281704676173,1.2316768612359148,0.22018880778619954,-0.39104063749898127,0.0001090344496093218,0.005286892868939178,1.0982727525767908,1.5678440151352633,2.8131197598843305,1.2617870674385576,1.7548831842298034,1.290725031987382,1.724281112358661,1.2537253790329423,1.6672686877769018,3.000618302851605,0.9365219633543227,103.30057949105567
2025-08-13 15:44:20,581.1219512195122,17.63380084091279,,,,,,,13.807258746350412,13.839190428924656,0.030354361417148,0.0237674524027971,580.0,14.825999999999999,0.02556206896551724,20.0,1.2788901767002399,570.0,590.0,0.0,6.862745098039216,530.0,640.0,3.8679245283018866,70.3125,,,0.05552461129471035,0.02148535628767622,0.0013469594821818099,0.07835692706456837,2.584300234600191,0.708611393718343,0.29769590093608056,-3.840383678803255,9.785785398424588,22.865600420348393,0.42796975450144276,702.9560451366555,2.348498157409548,3.5538982800009515,214.26527594268663,0.775609756097561,0.7785714285714286,0.944954128440367,0.43243243243243246,51.19617224880382,51.19027263082578,51.20175623950669,51.42857142857142,0.5503875968992249,0.4569190600522193,7.261044847487702,6.5653216429861265,0.48029185573396,0.5219982149742389,15.846568090023096,16.483991092914916,0.491145905947293,0.5120087951489545,12.325512007802473,12.545741693538716,1.1986433943874146,0.2749543066473559,1.0967155215058169,1.1471205297475227,1.0021102565507067,0.5801488999695559,0.0,4.989782180076834e-05,0.006515119964721939,1.047298843778561,1.2834932235556353,1.1983550624052195,1.4342415835472067,-0.4843140551404961,-0.5634592945271972,-0.3045929185129482,0.00010118209391191066,0.07205965472177059,1.0960122935016652,1.5673129861334294,2.821761123096686,1.264897055212112,1.7467685398209067,1.2585242344846583,1.6802433919653539,1.2603335126412942,1.6705252886034294,2.591411790581348,0.9402482036729773,103.24855200201462
2025-08-13 15:44:22,582.156862745098,18.362923180817784,,,,,,,14.12470846292275,14.155407263546287,0.03154291284007097,0.024262719151534533,580.0,14.825999999999999,0.02556206896551724,20.0,1.300056792607105,570.0,600.0,0.0,7.8431372549019605,530.0,650.0,3.7962962962962963,70.3125,,,0.0585601212108487,0.02308321026881367,0.0014761371400905628,0.08311946861975293,2.536914082958632,0.7045295426363226,0.28175910639855445,-3.7686497539119417,10.00938446651089,23.550450390658934,0.43072529110100477,740.5535377669356,2.352837027037312,3.5765265709503766,221.64148673019068,0.7609756097560976,0.7605633802816901,0.9351851851851852,0.40540540540540543,51.85185185185185,51.83219993566157,51.872773604539425,50.35460992907801,0.550617283950617,0.45049504950495045,7.429536984360477,6.711892799389383,0.5212513353650542,0.49343978661283944,17.002892440424084,16.29494898004461,0.5257466674017831,0.48671490241381404,13.12052535424193,12.461437862717768,1.1407146712669232,0.16550074744996834,1.0912866090699342,1.1211686698262773,1.0,0.23117182289041427,0.0,1.764241092734209e-05,0.0021731220883432043,1.2956421589536058,0.6108542052529495,1.3210817563118051,1.3272793321550131,0.35404475443447403,-0.4525258267013834,-0.3146203237808353,0.000211463192769713,0.025205313847236725,1.098098268952712,1.5895036975332832,2.867710113604587,1.2640544503700661,1.7106656108228633,1.304601699699432,1.6656890791702326,1.3282173951410536,1.681543742487587,2.8134856205786942,0.9402482036729773,103.06500505220613
2025-08-13 15:44:24,583.0392156862745,19.741642401330715,,,,,,,14.537195371222186,14.566355259819959,0.03385988775745305,0.024943963796192497,580.0,14.825999999999999,0.02556206896551724,20.0,1.3659926782528249,570.0,600.0,0.0,8.823529411764707,530.0,670.0,4.0,70.3125,,,0.05116306537186635,0.021007173338331794,0.0011963150470134713,0.07336655375721161,2.435504508286657,0.6973622550294213,0.28879249928780304,-3.862891312046846,10.299968581391028,25.733828272782077,0.4125145328341911,828.048309976986,2.512482205407379,3.6250257850853,258.6231424494971,0.7598039215686274,0.7552447552447552,0.9259259259259259,0.39473684210526316,52.03619909502262,51.91058439258271,52.17087593135604,50.349650349650354,0.557109557109557,0.4575471698113207,7.691450828132762,6.929632167741517,0.5301675748199666,0.5097297325145321,18.180391366778434,18.372759149012577,0.534088649205105,0.502591143339748,13.958600325441228,13.884849310090178,1.1471288471029069,0.22597869283662342,1.1044385575201856,1.1130278108150746,0.9992557338081456,0.40485114475446493,0.0,2.9414511642527204e-05,0.003930419247255119,1.2114623341406494,0.7422322482336954,1.3444445022221019,1.3596307757667447,1.2788998491763852,0.25095042217481245,-0.04000547265558229,0.000248955060572425,0.039950378541762394,1.0707636919943315,1.5750702689298925,2.9472450164400987,1.215417197994762,1.5400337753841635,1.3688169597907884,1.617573230194696,1.3957237897585446,1.678468812385008,2.6699928181404933,0.9402482036729773,102.90902976290567
2025-08-13 15:44:26,583.2843137254902,19.83487324045185,,,,,,,14.089789476343666,14.123845173586437,0.03400835553077977,0.02415798498213236,580.0,14.825999999999999,0.02556206896551724,20.0,1.4350675447457064,570.0,600.0,0.0,7.352941176470589,530.0,650.0,4.08,70.3125,,,0.047449622543162116,0.020727246485543974,0.0010623847819205285,0.06923925381062662,2.2892390736152732,0.6852994498314438,0.37846550732524775,-3.8763061888751853,9.987066698671859,26.13534270152446,0.3833474396539172,817.397314165386,2.6703375531302864,3.619403316318686,279.1607483192413,0.7549019607843137,0.7482517482517482,0.9158878504672897,0.39473684210526316,50.684931506849296,50.65100396352125,50.719833300575004,51.74825174825175,0.5384615384615385,0.4806201550387596,7.328906554672989,6.785248997671053,0.4764288778102955,0.5349081611975376,17.98226618581787,19.11471430180787,0.48437766232635504,0.5282311721895863,13.730891603693067,14.342452837644862,1.2121843434048907,0.1684211662296886,1.1874294256069264,1.1580565229261277,1.0001116821263434,0.33128516904474914,0.0,9.931517278982388e-06,0.0018025169173665075,1.308432986132132,1.2997843580142487,1.3800375958352495,1.3073105075495253,0.559493140428371,0.055267029462092054,-0.46115018800453605,0.0001889758371056604,0.08723389915466757,1.056556703845192,1.563975538357343,2.961643495420092,1.2089987540744194,1.4992210323901274,1.361496979293471,1.6071440967681403,1.3781070423839714,1.671682367657577,2.841219162457844,0.9402482036729773,102.86578704092781
2025-08-13 15:44:28,583.6764705882352,20.286451964172965,,,,,,,13.896166675593024,13.927369238666703,0.034756329895786385,0.023819998334769995,580.0,14.825999999999999,0.02556206896551724,20.0,1.4673653282910528,570.0,600.0,0.0,7.352941176470589,530.0,650.0,4.25,70.3125,,,0.04635892198518704,0.020487608558252393,0.0010398043399511149,0.06788633488339055,2.2627785889883034,0.6828903352172202,0.30629195791296443,-3.887935036170772,9.848137232750146,26.990074605322928,0.3736697832222072,830.9581236652921,2.754094923969788,3.6265492479223895,297.332909872343,0.75,0.7412587412587412,0.9150943396226415,0.38461538461538464,51.38888888888887,51.33353188207857,51.44581337052332,51.388888888888886,0.5382653061224489,0.47938144329896903,7.22687503505334,6.785248997671053,0.4892707894360808,0.5348560995671725,18.434898713891226,19.738882484813484,0.4952760567071079,0.5283943167801702,14.001307320455929,14.759117278985093,1.209954121579955,0.22677914196236126,1.0625676036784188,1.126794314161835,1.0129393699449851,-0.3904860565997339,0.0,1.171738758267455e-05,0.0031291746622860196,1.4089185203381112,0.5591593668881178,1.4531131783077684,1.499320311519926,1.028104837295552,-0.21464911587438973,0.0,0.0004983392936281835,0.03309100156292876,1.0680668528121244,1.5835744018441813,2.9896415632563405,1.1965246076915061,1.6607930038874565,1.3639129990103214,1.607798867347913,1.3781642321648866,1.669656828778531,2.820415963365006,0.9402482036729773,102.79667422524567
2025-08-13 15:44:30,584.0686274509804,20.47743432008585,,,,,,,13.825086073009036,13.857856588975041,0.03505997986821245,0.023678260086422997,580.0,14.825999999999999,0.02556206896551724,22.5,1.4888740084065195,570.0,600.0,0.0,6.862745098039216,530.0,650.0,4.434782608695652,70.3125,,,0.04258584616534165,0.022719114670962815,0.0011894145542092444,0.06327865237837425,2.163220361059178,0.6729891450705979,0.4365263398861057,-3.784548652835477,9.79898436677493,27.26614059708561,0.36084768912187587,835.9649595933693,2.797005466779575,3.629158183843181,305.0541772321159,0.75,0.7412587412587412,0.9245283018867925,0.34146341463414637,50.934579439252325,50.928639903541026,50.947290953028244,51.048951048951054,0.5338541666666667,0.4690721649484536,7.140735186932854,6.711892799389383,0.47084714969243474,0.5360001753553418,18.633614623306567,19.962095809979008,0.4777702599625963,0.5280816487648856,14.110309935288546,14.87938506491197,1.1888670855050933,0.19305078222365601,1.1942661829754178,1.1779939251572422,1.0,0.19745556949541276,0.0,3.2757484846678795e-05,0.0031452652330435454,1.0497810606715994,0.9664018869429716,1.1649349848882573,1.3017966939381793,0.3784936069559084,-0.6200620097121241,-0.022189002293286523,0.00012350392921979945,0.05002099647871463,1.0353092359173135,1.5465056655588398,3.0097534145984115,1.180110580147621,1.8217530273096132,1.3427059941063177,1.6145136339647466,1.38044536789003,1.6701607492117128,2.820415963365006,0.9026382755260581,102.72765421737306
2025-08-13 15:44:32,584.2647058823529,20.50948427516562,,,,,,,13.913880088361424,13.947491080403527,0.03510306898341964,0.02381434296522972,580.0,14.825999999999999,0.02556206896551724,30.0,1.4760872551160171,570.0,600.0,0.0,7.352941176470589,530.0,650.0,4.533333333333333,70.3125,,,0.04162236539540562,0.019414745859774672,0.0010177615938158303,0.06205487284899612,2.1438532183747414,0.6707348429621182,0.31320842688045947,-3.9417224057747453,9.862365523492217,27.311761250235488,0.3611032416815368,846.2149126736414,2.7755423612395003,3.634450784508007,302.7515400071369,0.75,0.7412587412587412,0.9245283018867925,0.34146341463414637,50.69124423963133,50.6928366200271,50.6889213403148,51.74825174825175,0.5307692307692307,0.475826972010178,7.158046085516369,6.803464463997095,0.4714886482188314,0.5377104724240561,18.753629329035373,19.996443343687876,0.47756660420032454,0.5298421780217135,14.189586181787627,14.919027717989692,1.194276227273755,0.3193483638351813,1.1744483389022582,1.1399748862046404,1.003759903265574,0.5247999208576903,0.0,4.009815038167426e-05,0.006924060325184257,1.2635897373675347,1.0723867572468198,1.5248995727596997,1.3625040290576345,1.6250231403542115,0.6250231403542115,-0.45353043314622105,0.00028607088239485844,0.053676584420486895,1.0402682005977568,1.5435458186253974,3.0164416611400093,1.1820643751382378,1.6301550750253604,1.3145099551880506,1.7053793459286566,1.3809951307363502,1.6857220929225019,2.639774208282829,0.9026382755260581,102.69317895796628
2025-08-13 15:44:34,584.3349753694581,20.571145506064127,,,,,,,13.930520662939847,13.96513070550686,0.03522338159507371,0.02383995695984479,580.0,14.825999999999999,0.02556206896551724,30.0,1.4841376808119362,570.0,600.0,0.0,7.389162561576355,530.0,650.0,4.413043478260869,70.3125,,,0.039082631990332885,0.018274948222061514,0.0010340859035127194,0.058362666272659,2.157708494490554,0.6710561245351153,0.3131273704440527,-4.002224106616437,9.874838622020373,27.34315086302729,0.36157313944880953,848.258926001593,2.768971920417362,3.63549854826756,302.8496678218333,0.7536945812807881,0.7482517482517482,0.9345794392523364,0.375,50.0,49.999365451608526,50.00070185832224,52.77777777777778,0.5204081632653064,0.5076923076923077,7.123641530615954,7.000707177857034,0.47006499767119947,0.5397267878495114,18.74681594185815,19.955234590055596,0.47587346334297714,0.5360203244877784,14.180785884686069,14.953616427711564,1.1830745598997392,0.1140359121428367,1.120878101956996,1.143155123219138,1.005977358416334,0.33320837517639923,0.0,1.3810349331900488e-05,0.0011853136332354798,1.3594365952185505,0.2569543609536944,1.4084852580285832,1.3739743757004854,1.002463521713378,-0.15508909561951434,0.0,0.00019584754614400345,0.010516253027017827,1.0288476024176303,1.53632557065191,3.022003176496647,1.172784381255558,1.5215826237455161,1.3532141112154965,1.7418902638065195,1.3753781677329953,1.6805573192514025,2.825200533813323,0.9026382755260581,102.68082953970664
2025-08-13 15:44:36,583.5294117647059,20.227623838571294,,,,,,,14.176925677835687,14.211973755246031,0.03466427472335806,0.024295134730161965,580.0,14.825999999999999,0.02556206896551724,20.0,1.4455931652935834,570.0,600.0,0.0,7.352941176470589,530.0,650.0,4.340425531914893,70.3125,,,0.03879026810154698,0.017549840285903593,0.0010939371854579152,0.05720618045182155,2.239367493167606,0.6780782739762838,0.3076197716670527,-4.042710429629986,10.04938301637971,26.808120333351287,0.3748633955465178,846.3609861727346,2.699613226418115,3.6345257458906066,286.05748816063954,0.7401960784313726,0.7310344827586207,0.9245283018867925,0.35714285714285715,49.999999999999986,49.99877685969636,50.00133103219964,51.724137931034484,0.5294117647058824,0.4999999999999999,7.312000173321486,6.893819875457113,0.47537289424712803,0.5270366123351624,18.436569962858737,19.461968138193466,0.47991833182042776,0.521655111922836,14.024486773676221,14.59953691538374,1.1641548393431176,0.19843568158018932,1.144821646542706,1.1480573042034008,0.9993306371445081,0.29157183206317394,-0.3696435127258835,4.783580610181922e-05,0.004400191051112462,1.0993548453072477,1.0749024718647577,1.2020078802531808,1.5461255010200747,0.1623003175717006,-0.8072134854537025,-0.12063197545257967,0.00019357412320584048,0.06341590072278022,1.062137322162374,1.5444330821251044,2.994754400040574,1.1944233788348804,1.7478668207720487,1.3449601186209827,1.7581156722722795,1.3758144403704877,1.6836601447194939,2.8481578665426595,0.9402482036729773,102.8225806451613
2025-08-13 15:44:38,582.8921568627451,19.604105941542382,,,,,,,13.699807628723821,13.733587394363738,0.033643792479806894,0.023511068867331196,580.0,14.825999999999999,0.02556206896551724,20.0,1.4403113316315133,570.0,600.0,0.0,6.372549019607843,530.0,650.0,4.163265306122449,70.3125,,,0.03915391742839408,0.017263565750460994,0.0011187649380243597,0.05753164802131363,2.3331944063545063,0.6861504895113146,0.3000707670335708,-4.0591570242546196,9.711112776572685,26.00742937086656,0.3733976410391041,793.4440324087401,2.6971041317228868,3.6064864080680494,280.32039547850087,0.7401960784313726,0.7310344827586207,0.9245283018867925,0.35714285714285715,49.7674418604651,49.771595388620966,49.763565468843126,51.724137931034484,0.5065616797900262,0.49599999999999994,6.911749216205892,6.821631290633239,0.48104604768158343,0.5202477239204226,18.038098458483432,18.74140241661712,0.4841683025496471,0.5173169579036621,13.659159440201018,14.09872405482171,1.1792520092059855,0.2737697910257191,1.2053213615977523,1.1233712236735451,1.0,0.3686799302369943,-0.12748643279047192,2.1820919316560155e-05,0.004471891140169372,1.2884983614713135,1.094195840048676,1.2955026840721304,1.430554034033816,0.6724470608587589,0.11687141772468124,-0.3765747912588684,5.6891242439200254e-05,0.045977808212445764,1.0602333497790628,1.5510068289982573,2.9474582238588973,1.202786418127043,1.6565636112275894,1.3407497740635999,1.7510641476019833,1.370694486372971,1.6872036875868777,2.8134856205786942,0.9778581318198964,102.93499285173661
2025-08-13 15:44:40,582.5980392156863,19.581709030391924,,,,,,,13.627702877384937,13.661303916494376,0.03362863660241555,0.023391261144186177,580.0,14.825999999999999,0.02556206896551724,20.0,1.4423536378454918,570.0,600.0,0.0,6.372549019607843,530.0,650.0,4.183673469387755,70.3125,,,0.037531146653925186,0.025997757442896518,0.0016937480735919087,0.0652226521704136,2.451860208789238,0.6958852718331392,0.3986001270688845,-3.649744996876877,9.660000639203512,26.01071932030231,0.37196783793953203,788.1316939821105,2.702846967025501,3.603568902566842,281.21197530012284,0.7401960784313726,0.7291666666666666,0.9245283018867925,0.37209302325581395,50.000000000000014,49.99983644171656,50.00023604502378,51.388888888888886,0.5092838196286472,0.4920212765957447,6.893819875457113,6.766984498868073,0.48255172379042416,0.5206844460489508,18.06859145885017,18.739546084026696,0.4856132326348262,0.5170419614732047,13.665985736166324,14.088340332403975,1.1509902081893235,0.15679498023733895,1.1163371781995712,1.096679111933943,1.0855378830581905,0.2974150806373064,0.0,1.0613921064396628e-05,0.0012609095431895586,1.303673050851408,0.7682220959537416,1.71151696776844,1.3274059197915693,2.090654801514235,0.7931247684372735,-1.0,7.49228399379714e-05,0.029643053700927267,1.0502401224696638,1.5297198273896118,2.9418817643108564,1.1987969379104642,1.6452899282066977,1.3120694506327846,1.7043644256223363,1.3651054870081964,1.6893773266130434,2.7996305686630585,0.9402482036729773,102.98695835086242
2025-08-13 15:44:42,582.3039215686274,19.672534065088442,,,,,,,13.55521458201721,13.588635938865336,0.03378680711633307,0.023280550385010194,580.0,14.825999999999999,0.02556206896551724,20.0,1.4580151195728857,570.0,600.0,0.0,6.372549019607843,530.0,650.0,4.340425531914893,70.3125,,,0.03787377461158195,0.021873376264820603,0.001467618222777303,0.061214769099179854,2.5114338475714773,0.7007704340387806,0.35732187814645633,-3.822485077387401,9.608616619446906,26.12110917505124,0.36784872170069544,788.501189035848,2.7327297854959816,3.6037724625300966,284.7035005741109,0.7352941176470589,0.726027397260274,0.9245283018867925,0.3409090909090909,50.23923444976074,50.24690217878606,50.23160087348286,51.369863013698634,0.5149863760217984,0.4906166219839141,6.8578205699986805,6.73030680600597,0.4818100328019997,0.5210576832115588,18.078985017833688,18.855346442588264,0.485728014877409,0.5174295113248726,13.671465869379501,14.156643655418401,1.1588346524814448,0.25486013197003365,1.2125322116085293,1.159860259791727,0.9999005957541527,0.18333689538899245,0.0,5.8700998869943095e-05,0.005878398772443885,1.1592739323302164,1.1714068760036094,1.2650957338845172,1.518655558736516,0.06862525394296526,0.7124800969958338,-0.03854004747466831,0.0003181907120564145,0.049568641383181886,1.04554865528669,1.5210269550900473,2.949568373201284,1.1946006391747823,1.616157742089627,1.286065013229016,1.6608238882441222,1.3558478448894067,1.6883451714342943,2.6155965109363555,1.0154680599668156,103.03897634481018
2025-08-13 15:44:44,582.0,19.987202983862584,,,,,,,13.612278194595453,13.645410859175183,0.03435091056079669,0.023388794148789437,580.0,14.825999999999999,0.02556206896551724,20.0,1.4741832518932652,570.0,600.0,0.0,6.341463414634147,530.0,650.0,4.361702127659575,70.3125,,,0.04108631047624138,0.02261009461614478,0.001521445957071578,0.06521785104945774,2.6442255807009847,0.7112156323614285,0.3466856735128928,-3.7893588079975746,9.648762550599322,26.598672430412176,0.36485512154776256,803.081482939208,2.7676437203455464,3.611729722233677,294.4625948862339,0.7365853658536585,0.7241379310344828,0.9238095238095239,0.3488372093023256,50.23474178403755,50.24202734237798,50.22746841542928,51.724137931034484,0.5146666666666667,0.49206349206349187,6.894704186026249,6.768515929047769,0.4796015678149902,0.5211354025761951,18.420450957872898,19.187922283795302,0.4836507715720653,0.5177198676750209,13.907730931108217,14.370176543380824,1.1617233446862256,0.33089428603291915,1.2050287976540117,1.1332452579007533,1.0,0.43873900336700355,0.0,4.116064437305168e-05,0.006880447456827549,1.3384867395892035,0.35478998815085894,1.4547046139855322,1.3201271730227218,1.5192905351077561,0.5192905351077561,-1.0,0.0003014836395723028,0.016464641520758088,1.0369849198411165,1.528857425774761,2.9832683415925496,1.1879562815280575,1.7629345588704564,1.2751730460009356,1.6261305850273913,1.3635461360540366,1.6901063398843073,2.8018800495382647,1.0114437204226685,103.09278350515464
2025-08-13 15:44:46,581.609756097561,20.37671629545386,,,,,,,13.464055413482964,13.495895640586031,0.03504637150554412,0.023157130969990093,580.0,14.825999999999999,0.02556206896551724,20.0,1.5134159560163818,570.0,600.0,0.0,6.372549019607843,530.0,650.0,4.533333333333333,70.3125,,,0.044521383778120475,0.021578784804856043,0.0014410644400001808,0.0675412330229767,2.696318112159708,0.7155277233007211,0.3194905369511866,-3.836044631912101,9.543039325644346,27.169553840724255,0.353912401123223,814.5525226085368,2.847054582255928,3.6178892029570124,309.41281104033254,0.7317073170731707,0.7241379310344828,0.9238095238095239,0.3333333333333333,49.28909952606633,49.26566317576557,49.31261409712599,52.083333333333336,0.5040650406504065,0.49728260869565205,6.768515929047769,6.73030680600597,0.47567855637521744,0.5243451163446332,18.738692896217657,19.6734858234441,0.47881760391925454,0.5213514432652113,14.087772901823035,14.702773108298759,1.1360822863019637,0.22499097089986586,1.1422056728320085,1.1484772880960892,0.9986987842006014,0.3116796737584364,-0.4495383741012909,5.241444412545616e-05,0.00492450345831494,1.1677125549922565,0.5274356841739836,1.193864313017777,1.345449828611101,0.6579127042002169,-0.07539403002168932,-0.21259905208969335,8.971937401433988e-05,0.01913453323578667,1.0302301166926986,1.5236710906766755,3.0164181341814706,1.163095486873149,1.812359397333493,1.262800611658793,1.6288506387783759,1.3659570649063744,1.6847193591726632,3.02254575070541,1.0114437204226685,103.16195588358636
2025-08-13 15:44:48,581.1219512195122,20.513261040776055,,,,,,,13.503812097939996,13.536675089957113,0.03529940832165778,0.02323748409365986,580.0,14.825999999999999,0.02556206896551724,20.0,1.5401140280875945,568.0,600.0,0.0,6.341463414634147,530.0,650.0,4.659090909090909,70.3125,,,0.04537262092061742,0.019481044274966323,0.0012344080856834497,0.0660880732812672,2.6741662721075206,0.7141264367390322,0.2947739782344096,-3.9383133746601087,9.571874750827691,27.42075857046158,0.34907403185916186,824.5677498612008,2.9060524003358053,3.623196454820513,318.05907603701877,0.7317073170731707,0.7241379310344828,0.9238095238095239,0.3333333333333333,49.528301886792434,49.51739904547388,49.53961494640583,52.083333333333336,0.5080645161290325,0.4999999999999999,6.82288239221013,6.713709230046811,0.4738447483201699,0.5268825680950684,18.875458109594373,19.890074955426638,0.47756178390284315,0.524035833771849,14.192157041566709,14.84400507541859,1.153195177262985,0.18924073375612593,1.1574578625027083,1.1667595304221907,0.9924535372009582,0.16750086131384245,-0.4087715504154132,5.166236022098606e-05,0.00415239825275028,1.3211973598023892,0.6994296595889935,1.3390310392351994,1.3761187836718527,0.15653860036929856,0.06360995244788192,-0.3433984479511418,8.582539540956354e-05,0.014928579213247008,1.037720022549356,1.5254522563610076,3.029104762598745,1.1503269508114677,1.6294455850794367,1.2959215904069332,1.6632719032819818,1.3767498730001504,1.6847256853682717,2.788087283945112,0.9365219633543227,103.24855200201462
2025-08-13 15:44:50,580.2926829268292,20.625326975945327,,,,,,,13.302660798266093,13.334570839896102,0.035552962240076945,0.022924053998357004,580.0,14.825999999999999,0.02556206896551724,20.0,1.552026462264678,560.0,592.0000000000002,0.0,5.853658536585367,530.0,650.0,4.681818181818182,70.3125,,,0.04540916275220405,0.018875719162535366,0.0011569259395240897,0.0654418078542635,2.5588904641667494,0.7063834996586038,0.2884351728878105,-3.969878883246509,9.42896546510293,27.661831986119644,0.3412197789793353,818.5472721241209,2.9367598916194555,3.6200138754810705,324.94463482220925,0.7330097087378641,0.726027397260274,0.9245283018867925,0.36363636363636365,49.52380952380951,49.52197018461714,49.52631054349836,51.724137931034484,0.5027624309392266,0.4986149584487533,6.6789103255886655,6.658451424277128,0.4760760943109451,0.5253797956761269,19.086184879512945,20.029335046022364,0.47884896178464276,0.5225882246581918,14.298431669106291,14.924966294020194,1.1791636957483644,0.3024707591285962,1.0790617371403917,1.0919659749964943,1.0,0.4135923248297626,0.0,7.669804946960473e-05,0.007217652802627281,1.2748419267284534,0.313547853923807,1.542644443603983,1.400274309476655,1.7283144525299132,0.7283144525299132,-0.23611140788355264,0.00013390557667398523,0.012186115823681794,1.0351570533299603,1.518732499016524,3.0347917722181355,1.13788631390908,1.604916611292853,1.3031221413922076,1.6690124247994989,1.3779729978807227,1.6824034323544976,3.011328085982673,0.9328277338814586,103.39609952925353
2025-08-13 15:44:52,580.0,20.60363569668151,,,,,,,13.503812097939996,13.53703185809554,0.035523509821864675,0.023292229533678578,580.0,14.825999999999999,0.02556206896551724,20.0,1.5445630227120797,560.0,590.0,0.0,6.341463414634147,530.0,650.0,4.456521739130435,70.3125,,,0.02750909307464746,0.010899788988924146,0.0006718240440099433,0.03908070610758155,2.523818864989121,0.7039047093704065,0.28521804897802383,-4.519011848748722,9.572127023997684,27.556283121926988,0.34825211212462664,826.5574029322428,2.914450847580068,3.624243129891077,321.2457308034257,0.7365853658536585,0.7310344827586207,0.9245283018867925,0.36363636363636365,49.999999999999986,49.9995979071014,50.0004571189926,52.083333333333336,0.5161290322580646,0.49586776859504145,6.876819060735032,6.658451424277128,0.4709621997003772,0.5307623228168491,18.876308926613856,20.075699260619448,0.47584752242553985,0.5270865000219654,14.196802807240465,14.95608030488427,1.1461513814369666,0.18861513855953094,1.1309746652910162,1.1151173245676103,1.0,0.3103745944178029,0.0,3.13666205207963e-05,0.003379182689792808,1.2300093643297147,1.1368493931630885,1.3415018547233228,1.4220259539811768,0.1351799976138821,-0.0857335202195113,-0.38320803058225417,5.4254969821384766e-05,0.047481109634268874,1.0258653032574738,1.5343474610790304,3.0298434028058296,1.1487514439867812,1.7597671491363656,1.301907973643943,1.7087117513645464,1.3826274758991906,1.6844612712938873,3.0332177350763447,0.9365219633543227,103.44827586206897
2025-08-13 15:44:54,579.757281553398,20.49245715815645,,,,,,,13.379999635422358,13.412664522157076,0.035346614540569615,0.02307862283259655,580.0,14.825999999999999,0.02556206896551724,20.0,1.531573820368761,560.0,590.0,0.0,5.853658536585367,530.0,650.0,4.382978723404255,70.3125,,,0.04371483083686895,0.017337914597580748,0.000960867478354107,0.062013612912803814,2.5213430710385847,0.7049231416065946,0.2962764742766006,-4.054859580284309,9.484186037397492,27.45053374645179,0.3456180771466009,817.9009832163496,2.8943478795344624,3.619670840227695,317.80557656452777,0.751219512195122,0.7482517482517482,0.9439252336448598,0.37209302325581395,50.23923444976076,50.237574364114714,50.24063503772616,51.048951048951054,0.5123287671232877,0.4877384196185286,6.788109558083827,6.623635634574703,0.4722604794501869,0.5281083267473964,18.856971743900097,19.948594427047777,0.47653604404706806,0.5238031852599454,14.171517468549295,14.863024063669705,1.1646506684822164,0.20350027341304155,1.083314837959624,1.1354980302510775,1.0056532357223396,0.28996834641235036,0.0,6.366867368565587e-05,0.005452418075292502,1.2671906046534873,0.6279450944082203,1.4582025725952832,1.4405366607518308,-0.1738829576103882,-0.9823086504909337,-0.09243524527589828,0.0003714932823994601,0.026743439097837593,1.0224554983896499,1.5033108195060787,3.0180958271980036,1.1404871540322548,1.6285945297135653,1.2766300504836445,1.7110177336410293,1.3848808358098428,1.6792141598783372,2.7766498912427617,0.9365219633543227,103.49158502888723
2025-08-13 15:44:56,579.3658536585366,20.629500219157144,,,,,,,13.630271960804384,13.663714452159613,0.03560703498296888,0.02352619139483791,580.0,14.825999999999999,0.02556206896551724,20.0,1.5321094530198502,560.0,590.0,0.0,6.341463414634147,530.0,650.0,4.456521739130435,70.3125,,,0.023939015513392812,0.010711807091905359,0.0005605126864986374,0.035211335291796805,2.2348251147542526,0.6798667336813521,0.31256076914520864,-4.536408679352756,9.661705145318695,27.594113344659046,0.350136459346999,837.5680381119623,2.888522733218613,3.629990206120098,318.15281754521396,0.7365853658536585,0.7394366197183098,0.9428571428571428,0.38095238095238093,49.76525821596245,49.767477855804366,49.76343403763096,51.40845070422535,0.4959349593495936,0.5092348284960423,6.768515929047769,6.894704186026248,0.4771778895701333,0.5313604189117905,19.06147921596395,20.072182305487377,0.47866173597822226,0.5284388042084911,14.303020621225416,14.978406296841028,1.161195437455465,0.2888959515261986,0.9965043381387098,1.0827189807198487,1.0,-0.4782652144554822,0.0,0.00010593984342170631,0.008178708731789133,1.2983765166996304,0.6731072261143922,1.2983765166996304,1.4427812104014355,0.20219126962553347,-0.2629075543002459,-0.08457458041616654,0.00022795512400291802,0.0351454051158048,1.0270561287467963,1.5103176666363585,3.0262937696132246,1.1504006700571048,1.6213502989231519,1.2983671294880708,1.7404001060267031,1.3833085823189646,1.6897305538651692,3.0413808918003724,0.8990610848201498,103.56150543066431
2025-08-13 15:44:58,579.5121951219512,20.740131070571515,,,,,,,13.862065601673441,13.895819128062724,0.03578894671268654,0.023920231046658715,580.0,14.825999999999999,0.02556206896551724,20.0,1.5104937021747795,560.0,590.0,0.0,6.829268292682928,530.0,650.0,4.5777777777777775,70.3125,,,0.021303417586310915,0.010210502192097065,0.0005006340786094852,0.032014553857017465,2.086422115730975,0.665429157047,0.32478470352691263,-4.584338461717709,9.825827935594889,27.67871514530696,0.3549958111860152,854.4073065298963,2.842308324243941,3.6386350635648674,313.89029289670947,0.7463414634146341,0.7430555555555556,0.9439252336448598,0.37209302325581395,50.697674418604656,50.68207319842133,50.71291072792739,49.6551724137931,0.5012987012987012,0.5076530612244898,6.894704186026249,7.00105551507222,0.4803531280696933,0.5197963666746495,19.1834289427179,19.952627047452626,0.4825274429179986,0.5183044901338375,14.414244548590027,14.951958139652833,1.13441587369179,0.23427339117476742,1.1561384164128725,1.1318102520301663,1.0105067198769866,0.15157934352471614,0.0,7.623249529632933e-05,0.006630400346534373,1.2560117078746964,0.9351526975720503,1.3294491723148436,1.5185777144772565,-0.0479198598653614,-0.2947915075009293,-0.21768097385763943,0.00023918503234890217,0.05725672601764988,1.0098720160688281,1.4887396727925641,3.037320621846856,1.1559123344335576,1.6119275658569205,1.2858958586753184,1.7354008518078572,1.390072589371884,1.6902282925986962,2.8041195662926874,0.8990610848201498,103.53535353535354
2025-08-13 15:45:00,579.3658536585366,20.993041592709886,,,,,,,14.194033543545475,14.228866414025577,0.036237567585934036,0.02450132095340874,580.0,14.825999999999999,0.02556206896551724,20.0,1.5009892443003368,560.0,590.0,0.0,7.804878048780488,530.0,650.0,4.767441860465116,70.3125,,,0.019211851380802378,0.00977814050575051,0.0004630216049803768,0.029453013491533262,1.9647755490426748,0.6522881397628507,0.3384984163712615,-4.627605945349204,10.061327929954999,28.001699766265222,0.35931132802431826,885.0943567045434,2.8081131044897347,3.6539596816898383,311.7263229103655,0.7414634146341463,0.7328767123287672,0.9345794392523364,0.37209302325581395,49.775784753363226,49.774545598527055,49.77739990958443,50.0,0.48418491484184917,0.5277777777777778,7.00105551507222,7.226115745576796,0.48067008628436475,0.5290094458121892,19.413683384055414,20.179298482943075,0.48107198476495594,0.5288708059302196,14.59290719598861,15.156200645811298,1.0947977227837318,0.2612296167899042,1.0638374406806035,1.0759672928632424,0.9980361164709275,0.4862899450913738,-0.4255331181569327,4.415807152017409e-05,0.005615065451844303,1.3491669047557353,0.4066609143157047,1.5248673414348293,1.3447200962134325,1.1211195977176267,0.10137072768184696,-0.9429912954003307,0.00033879017551528525,0.027278584296804215,1.0153901783398642,1.5250967640003494,3.0555136980856177,1.1564707499949742,1.516714247118542,1.2893084994149426,1.7362707470071534,1.3955608372387076,1.7078939062768126,2.8640418007333985,0.8616002062859769,103.56150543066431
2025-08-13 15:45:02,579.1747572815534,21.281298773347082,,,,,,,14.415438878118852,14.450396693870875,0.03676266287051991,0.02490214179364766,580.0,14.825999999999999,0.02556206896551724,30.0,1.476285179610445,560.0,590.0,0.0,8.25242718446602,530.0,650.0,4.790697674418604,70.3125,,,0.017439867716617607,0.009291016988360783,0.0004399183405607938,0.027170803045539184,1.8770676814459821,0.6418605915838336,0.34572012754165143,-4.678707260849681,10.217973493071762,28.35591414589307,0.36119430273896735,910.2449898375429,2.775101556597268,3.6661284071344884,314.76216594002545,0.7427184466019418,0.7346938775510203,0.9351851851851852,0.36363636363636365,49.77777777777778,49.772616322518864,49.78316528168094,50.0,0.48441247002398097,0.5187793427230046,7.088377673291377,7.359800721939871,0.4794562695765839,0.5231251691414605,19.581495329764614,20.509093292968007,0.48002824771601915,0.5226256968535649,14.725489081670752,15.407621074752779,1.1411361384112697,0.3026557816520352,0.9945565727638792,1.077386796577088,1.0029227413409114,0.35049191487554876,0.0,0.00011485919030383491,0.00876662400849138,1.1107240882026244,1.6366710396170823,1.2350617108983222,1.4058594065884542,0.3801178720739742,-0.6265617726974837,-0.11726718823922433,8.569759031501805e-05,0.10234818883637561,1.009438730700022,1.5065434892714678,3.078940313269343,1.165571327826989,1.6996925183126705,1.302344988437808,1.7823918556605154,1.4024024947383507,1.7086305078644959,2.893609354413008,0.8582015151709419,103.59567513200905
2025-08-13 15:45:04,578.780487804878,21.37378845909665,,,,,,,14.433756729740644,14.46851316066259,0.03692900660863729,0.024938222752607098,580.0,14.825999999999999,0.02556206896551724,30.0,1.4808592344312108,560.0,590.0,0.0,8.292682926829269,530.0,650.0,5.024390243902439,70.3125,,,0.016598651737558603,0.00909493006190777,0.0004544444994272396,0.02613933045541912,1.8250444615378205,0.635006767517162,0.3479404370138424,-4.7000381567713845,10.230783769591325,28.48052827247118,0.35922029506314446,915.3913813130661,2.786138519386413,3.668576929058318,317.27085008554286,0.7414634146341463,0.7278911564625851,0.9345794392523364,0.36363636363636365,49.56140350877193,49.56261394704885,49.56088094988035,50.34013605442177,0.4812206572769953,0.5199999999999999,7.088462838917843,7.377906040127225,0.48047719782732473,0.5234094075992517,19.733488518396612,20.604818943782963,0.48056204619944487,0.5230197065649266,14.826592109195333,15.475659295212967,1.158077121228139,0.2847440501777181,1.0136093733521072,1.101558489718314,1.0045871769719052,0.5812961636697096,0.0,7.105124585930578e-05,0.00819081752117802,1.3071249555497007,0.7340637964736905,1.6958598912308336,1.6042800370731762,2.0059325289954932,1.005006950669969,-0.17034585955441325,0.00021279877060667097,0.037826783751217875,1.0077472563836438,1.4878307803393134,3.0850361016657044,1.164908292650805,1.7611040775380522,1.318197412871944,1.859057043064941,1.405200436530677,1.7063219720630907,3.1582619859943564,0.8616002062859769,103.66624525916562
2025-08-13 15:45:06,578.5922330097087,21.537460000706375,,,,,,,14.566918752818644,14.601841435730075,0.03722390099962676,0.025176485133657528,580.0,14.825999999999999,0.02556206896551724,30.0,1.4785185780307148,560.0,590.0,0.0,8.737864077669903,530.0,650.0,5.15,70.3125,,,0.03534387772945695,0.014204023283548401,0.0008845642464905747,0.05043246525949593,2.4883004641645066,0.7008159832678822,0.34318600184253273,-4.254230024677885,10.32506109701545,28.64954222544233,0.36129777560308207,929.3091000900228,2.7747576461047516,3.6751302998821602,317.9821453897882,0.7330097087378641,0.722972972972973,0.9345794392523364,0.3333333333333333,50.64935064935065,50.63325136066644,50.66512777583472,50.0,0.49425287356321845,0.5092165898617512,7.259206460169909,7.359800721939871,0.4832583912629781,0.5207783747619481,19.916241735405762,20.600414857481262,0.4845223423556507,0.5194434062169065,14.989208839936998,15.468415545345964,1.0973994831464167,0.3645247816232384,1.0927886737684576,1.0667673122350867,0.9977500657358607,0.6898737299949915,-0.575471778841396,6.716414200896443e-05,0.009792857303362367,1.274558983772136,1.0051143994626761,1.1882403469918472,1.3291023144546208,1.2702666205969892,-0.03056812692144728,0.0,0.00020623615205520466,0.04003526952923769,0.9985335764151229,1.5058120025884827,3.097901190833786,1.1684853605254677,1.5952537196383645,1.3368165311922555,1.838746098605399,1.4128742977837765,1.7116323449644943,2.914318605678689,0.8582015151709419,103.6999748301032
2025-08-13 15:45:08,578.4878048780488,21.492271697213372,,,,,,,14.499789737752213,14.535202736925926,0.037152506096034585,0.02507308558698024,580.0,14.825999999999999,0.02556206896551724,30.0,1.4838005281351936,560.0,590.0,0.0,8.292682926829269,530.0,650.0,5.125,39.0625,,,0.01762220501960405,0.009244375373453932,0.0005437069648300326,0.027316624342029878,1.925774118009104,0.6451091759712854,0.33991099032182326,-4.683739980140676,10.277940421201587,28.66453486061189,0.35966510568741966,924.5994681443632,2.7918111097447205,3.6729237492455167,320.1038675180844,0.7317073170731707,0.7210884353741497,0.9245283018867925,0.3333333333333333,50.0,50.00090080033416,49.99917695957096,49.65986394557823,0.48598130841121495,0.5174013921113688,7.157620211606372,7.393027982166578,0.48204006388613113,0.5188411950490116,19.883329870563134,20.64724562825768,0.4821040412501954,0.518292822442584,14.942863410926707,15.499934582956026,1.102859195738918,0.3792279845485742,1.0583577759136382,1.080105682556398,1.0035805974255996,0.6418029150939553,0.0,8.41284701120863e-05,0.011067413448923659,1.1423327056846153,0.8789027393699569,1.2495662790059185,1.453511212394439,1.3928610876640315,0.42331335459872044,-0.06627795045922948,0.00013117596259642166,0.043887275803544394,1.001733907074132,1.5084423098609752,3.0934529526234527,1.1721234367994757,1.686942492467354,1.2665962263040278,1.8371437982359422,1.4057403982760182,1.7102154414796817,3.164542055552174,0.8208884058156836,103.71869466228182
2025-08-13 15:45:10,578.6341463414634,21.47844741894296,,,,,,,14.467678648981531,14.503186299127508,0.03713436985566303,0.025003153962579783,580.0,14.825999999999999,0.02556206896551724,30.0,1.4882156867497665,560.0,590.0,0.0,7.804878048780488,530.0,650.0,5.125,39.0625,,,0.018375842379995806,0.009077800812272689,0.0005737226339875565,0.027994922844131548,2.0315218839379803,0.6563991078778005,0.328566761693201,-4.701923316995959,10.255301380924886,28.570476345408363,0.3593267249510028,919.5115934758111,2.7931589543649706,3.6705273192844783,319.2075273385998,0.7317073170731707,0.7162162162162162,0.9245283018867925,0.3333333333333333,51.09170305676856,51.101489158472816,51.08112664083679,49.32432432432432,0.49882903981264637,0.5105386416861828,7.225363821493085,7.3276586493086695,0.4840987205955431,0.5201426139890457,19.878538383739045,20.58354279636541,0.48577271395194527,0.5190443774007671,14.955971560328798,15.449543930656894,1.1372988048493748,0.2846695882566477,1.031377627954143,1.1244036741284615,1.0032046858262096,0.44869883098924945,0.0,0.00011460249136313192,0.01012104477584543,1.3005686731158246,0.48508065261454814,1.444764360895556,1.3908822240778498,-0.18776883235582176,-0.6705236723377022,-0.36711266619195954,0.0004153803231333461,0.027922255156827554,0.9926688273060496,1.4996230464268938,3.091457848069115,1.1638452776164787,1.4402810532169474,1.2326067092875304,1.8659624241221389,1.4155913095125654,1.7113284003237945,2.90558725032307,0.824139327751804,103.69246332827517
2025-08-13 15:45:12,578.7864077669902,21.36797014820134,,,,,,,14.467678648981531,14.503186299127508,0.03692517812004784,0.025001046303980562,580.0,14.825999999999999,0.02556206896551724,30.0,1.4825764953835796,560.0,590.0,0.0,7.804878048780488,530.0,650.0,5.024390243902439,70.3125,,,0.019447633906069833,0.009195308678300727,0.0006147444174948341,0.029257687001865394,2.1149517201051387,0.6647016869388855,0.31704044822835525,-4.689061851255419,10.255301380924886,28.4978194315619,0.35986266968787567,918.1421616327017,2.7836134962444534,3.669880040871726,316.76327479345696,0.7330097087378641,0.7162162162162162,0.9245283018867925,0.36363636363636365,50.87719298245613,50.89325280941564,50.86054130911316,49.32432432432432,0.4952830188679245,0.5105386416861828,7.1748053989160745,7.3276586493086695,0.4817018694589359,0.5207233200653503,19.72898667206562,20.564357447957473,0.483254519356646,0.5195556002387081,14.84437178897878,15.436764209641737,1.1036756300867225,0.2777758645228465,1.125218335634223,1.1363062371105233,0.9937707024789575,0.5205561490156596,-0.44594778005910574,8.327234889500875e-05,0.005910668483722165,1.1562802055005568,0.5272842915767415,1.3314324359000302,1.1935838374810441,1.3544575328322654,0.6889496817465166,-0.9152576188625775,0.00012067369554965038,0.020338769911476286,0.9904938730661028,1.5066986302561483,3.0848355559826177,1.1636089021949685,1.451237177918143,1.135641553915458,1.9073175150358395,1.4214557164157702,1.7114122628038961,2.7080216622943327,0.8208884058156836,103.66518493667702
2025-08-13 15:45:14,578.8834951456311,21.45478590034952,,,,,,,14.6170631997459,14.65284553774253,0.03708412397610338,0.02525044041213967,580.0,14.825999999999999,0.02556206896551724,30.0,1.4900699296350963,560.0,590.0,0.0,8.25242718446602,530.0,650.0,5.024390243902439,70.3125,,,0.020862042679148433,0.009599860815491836,0.0006453736749337148,0.031107277169573982,2.1731609530715468,0.6706483041065899,0.3106849092255807,-4.646006678999716,10.361126443416785,28.582316706520007,0.36628993680979127,920.743862849802,2.8006283198916897,3.671108942740603,320.1937824655732,0.7427184466019418,0.7297297297297297,0.9351851851851852,0.36363636363636365,49.99999999999999,50.00092563397834,49.999135818894814,50.0,0.4840182648401826,0.5200000000000001,7.208382919471292,7.4425907359430346,0.47808904494158855,0.5245684154451365,19.707949562156994,20.701341801131836,0.4787904518202838,0.5240517846735746,14.805459735255168,15.535639977708593,1.0745962614728226,0.33785794307273687,1.136125028615501,1.0550654088252776,0.9884728454310161,0.5979533392136047,-0.706595554531878,4.3615599811776746e-05,0.007554872483752398,1.3011644161375242,1.1863216836676944,1.5882034023217786,1.4495143637990255,0.21103765743515268,0.314001753912339,-0.5401238723524185,0.00017036331088440089,0.07262954543137398,1.0071143603000396,1.550597412411167,3.0906907884019454,1.1742215683035482,1.5359414204262853,1.152021016525327,1.90538208269164,1.422779164611027,1.7149784481007464,2.886711638228316,0.8955146245262001,103.64779874213836
