Timestamp,HRV_MeanNN,HRV_SDNN,HRV_SDANN1,HRV_SDNNI1,HRV_SDANN2,HRV_SDNNI2,HRV_SDANN5,HRV_SDNNI5,HRV_RMSSD,HRV_SDSD,HRV_CVNN,HRV_CVSD,HRV_MedianNN,HRV_MadNN,HRV_MCVNN,HRV_IQRNN,HRV_SDRMSSD,HRV_Prc20NN,HRV_Prc80NN,HRV_pNN50,HRV_pNN20,HRV_MinNN,HRV_MaxNN,HRV_HTI,HRV_TINN,HRV_ULF,HRV_VLF,HRV_LF,HRV_HF,HRV_VHF,HRV_TP,HRV_LFHF,HRV_LFn,HRV_HFn,HRV_LnHF,HRV_SD1,HRV_SD2,HRV_SD1SD2,HRV_S,HRV_CSI,HRV_CVI,HRV_CSI_Modified,HRV_PIP,HRV_IALS,HRV_PSS,HRV_PAS,HRV_GI,HRV_SI,HRV_AI,HRV_PI,HRV_C1d,HRV_C1a,HRV_SD1d,HRV_SD1a,HRV_C2d,HRV_C2a,HRV_SD2d,HRV_SD2a,HRV_Cd,HRV_Ca,HRV_SDNNd,HRV_SDNNa,HRV_DFA_alpha1,HRV_MFDFA_alpha1_Width,HRV_MFDFA_alpha1_Peak,HRV_MFDFA_alpha1_Mean,HRV_MFDFA_alpha1_Max,HRV_MFDFA_alpha1_Delta,HRV_MFDFA_alpha1_Asymmetry,HRV_MFDFA_alpha1_Fluctuation,HRV_MFDFA_alpha1_Increment,HRV_ApEn,HRV_SampEn,HRV_ShanEn,HRV_FuzzyEn,HRV_MSEn,HRV_CMSEn,HRV_RCMSEn,HRV_CD,HRV_HFD,HRV_KFD,HRV_LZC,HR
2025-08-13 15:42:40,570.8737864077669,19.85766983331209,,,,,,,13.21021589231488,13.262284005894289,0.03478469375563173,0.0231403441651094,570.0,14.825999999999999,0.02601052631578947,20.0,1.5032055490375753,560.0,580.0,0.9708737864077669,2.912621359223301,520.0,650.0,3.6785714285714284,46.875,,,0.013281725226693606,0.007549886598995757,0.002934031327347338,0.0237656431530367,1.7591953273126335,0.5588624360454771,0.31768071877453297,-4.886222735834567,9.37785095458974,25.342920868134335,0.37003828419719587,746.6376162696397,2.7024230808158576,3.5800799762469637,273.9491771573443,0.7572815533980582,0.7656250000000001,0.9387755102040817,0.4444444444444444,53.19148936170214,52.947606747689825,53.453450480440935,45.3125,0.5730337078651685,0.4269662921348315,7.105986877623015,6.133821188805362,0.5847254054419276,0.4152745945580722,19.37905741271504,16.331435084621713,0.5833148314346737,0.41668516856532617,14.595254634816348,12.335711051646975,0.990532259228465,0.633837521411726,0.9015749617778281,0.7254602741847296,1.0,1.5831083325246973,-0.7778546262153178,0.00025468072589252027,0.030179270438055475,0.8304436909778712,1.3819746999753737,2.844602953313426,1.0681059356106821,1.305916892207098,1.2181318750162622,1.3878634839524426,1.256346153366517,1.722614397209496,2.281021786744464,0.9088447318501461,105.10204081632654
2025-08-13 15:42:41,571.5384615384615,20.51611872911746,,,,,,,13.510154397513753,13.574816831485284,0.035896304640447775,0.02363822438326767,570.0,14.825999999999999,0.02601052631578947,20.0,1.5185702639262952,560.0,584.0,0.9615384615384616,1.9230769230769231,520.0,640.0,3.7142857142857144,46.875,,,0.016444452477598796,0.011592530548901034,0.0035831012398905206,0.031620084266390354,1.4185386364289305,0.5200635247856675,0.36661921743273074,-4.4573943064723665,9.598845034908527,27.201471388294017,0.3528796254396492,820.2783511002007,2.8338275375182405,3.620931359703923,308.3371147246484,0.75,0.7575757575757576,0.94,0.42105263157894735,51.04166666666667,50.98995948346785,51.09461447062632,46.96969696969697,0.5691489361702127,0.43085106382978733,7.242304908808856,6.301260378126044,0.5030753204023376,0.4969246795976625,19.293405973458714,19.175101867564763,0.510393318387473,0.4896066816125271,14.572002169380315,14.272182979215668,0.8708307868889675,1.1763443022087297,0.9546016248297535,0.44488622323975824,1.0098185060410543,2.5772182084112485,-0.9333046036206768,0.0009131531688390146,0.10843636531581084,0.7981447535098396,1.3645070069349832,2.919959452896566,1.0462218628078468,1.3754406020151144,1.2216500616351382,1.395017185364379,1.2518418247290948,1.7053349382460417,2.29864097631574,0.9019822697497624,104.97981157469717
2025-08-13 15:42:42,570.9708737864078,20.02520779588136,,,,,,,13.648242004152827,13.71422562411145,0.035072205457843564,0.023903569570272763,570.0,14.825999999999999,0.02601052631578947,20.0,1.467237156975102,560.0,580.0,0.9708737864077669,2.912621359223301,520.0,640.0,3.6785714285714284,46.875,,,0.0175474661253241,0.013480317645636876,0.0036745147019106,0.034702298472871575,1.3017101367046513,0.5056571725080914,0.38845604581999305,-4.306524609559222,9.697421937531516,26.58342180552219,0.3647920876580706,809.8732366819338,2.7412875274239137,3.6153871573369805,291.4912105269075,0.7378640776699029,0.7424242424242424,0.9183673469387755,0.4444444444444444,48.95833333333335,48.98129956293168,48.93642677096063,48.484848484848484,0.5421052631578948,0.45789473684210524,7.140735186932854,6.562721000522044,0.4863637661322599,0.51363623386774,18.539221307111347,19.05191822930859,0.4929114932594771,0.507088506740523,14.04800387393085,14.248594582395732,1.189262404771522,0.4539970623988663,0.7657235660132171,0.9927220972126503,1.060916447281123,-0.2478720386005353,0.0,0.0004556618801456113,0.025416099467662805,0.8059141604122741,1.3645070069349834,2.888296813219223,1.071513043987728,1.2268601938876014,1.2109572355453753,1.4039020227184456,1.2541826149150315,1.7127291781852216,2.161135432246803,0.9737622126965852,105.08416935895256
2025-08-13 15:42:43,571.0679611650486,20.38418366875687,,,,,,,14.176755346582755,14.23824517641647,0.03569484729483097,0.024824988111153072,570.0,14.825999999999999,0.02601052631578947,20.0,1.4378595927219966,560.0,580.0,0.9708737864077669,3.8834951456310676,520.0,640.0,3.5517241379310347,46.875,,,0.019541024108500907,0.017063876559187542,0.0038848751819495187,0.04048977584963797,1.1451690968767363,0.48261625801703784,0.4214366763243051,-4.070791531829669,10.067959716440734,26.719728561297906,0.3767987273277781,845.129738238954,2.65393677704781,3.6338934937946066,283.6498812062531,0.7378640776699029,0.7424242424242424,0.9183673469387755,0.4444444444444444,52.52525252525254,52.43351832751733,52.618476969039854,45.45454545454545,0.5658536585365854,0.4341463414634146,7.5779774725356255,6.637725961546924,0.5162371431873337,0.48376285681266606,19.198030014447927,18.584389630918615,0.5224122230092078,0.47758777699079236,14.594349917175155,13.954191913084566,1.2126988859264503,0.5099784006076189,0.8053507243231612,1.0603399246269707,1.2052604780086598,-0.1578606166955736,0.0,0.00043489485347424523,0.023364079183923445,0.8196398471560351,1.3818987496468522,2.885594521829998,1.065102977042564,1.3537821650258879,1.2320798684601975,1.4496951165019631,1.2486650247566835,1.7049475204418607,2.340853913464707,0.9737622126965852,105.0663039782387
2025-08-13 15:42:44,572.1153846153846,21.572774865200245,,,,,,,13.969453499259059,14.029285950041693,0.037707035058501266,0.024417196032318355,570.0,14.825999999999999,0.02601052631578947,20.0,1.5442819482053802,560.0,584.0,0.9615384615384616,2.8846153846153846,520.0,640.0,3.8518518518518516,46.875,,,0.020547936880030437,0.020013256618776582,0.003876784133417906,0.04443797763222492,1.0267163046693866,0.46239585991262044,0.4503638033307718,-3.9113603940647215,9.920203230479636,28.613662321098502,0.34669463556103053,891.7515845854664,2.884382674054859,3.6572139996863546,330.13100736093145,0.7403846153846154,0.7352941176470588,0.9,0.42105263157894735,52.475247524752476,52.39264253192627,52.558019282608235,45.588235294117645,0.582089552238806,0.417910447761194,7.5731724644610185,6.416889479197478,0.5099096746624143,0.4900903253375856,20.432432535293426,20.031409638778154,0.517662934313981,0.48233706568601875,15.408394473237436,14.873362812504267,1.13688469417211,0.41450755228239333,0.9635016763774615,0.9296309180309134,0.9933820935374362,1.1200890555536056,-0.5817132478287703,0.00023532470338536194,0.015315797038726105,0.8375411283479415,1.418779816264379,2.960141571226744,1.0381420160774757,1.1941546474062434,1.201223441921839,1.4261831901864437,1.2575476618912667,1.6926064555986566,2.358018357100787,0.9664095747318882,104.87394957983192
2025-08-13 15:42:45,572.5242718446602,22.172162665349298,,,,,,,14.037764192684381,14.098483239843317,0.03872702653096451,0.02451907261058998,570.0,14.825999999999999,0.02601052631578947,20.0,1.5794653878645477,560.0,590.0,0.9708737864077669,2.912621359223301,520.0,640.0,3.9615384615384617,46.875,,,0.018188446218622818,0.012215248338524996,0.0030140577260242174,0.033417752283172036,1.4889952062013576,0.544274972909589,0.3655317160477053,-4.405070243858959,9.969133103338095,29.51206446753751,0.3377985675757749,924.2870284628885,2.960344110327467,3.672776968108727,349.4634649203167,0.7378640776699029,0.7352941176470588,0.9,0.42105263157894735,52.475247524752476,52.39264253192627,52.558019282608235,45.588235294117645,0.582089552238806,0.417910447761194,7.610571074446905,6.448578015023279,0.5094786411385449,0.490521358861455,21.065054244630694,20.669432474232483,0.5169236607648485,0.48307633923515136,15.837570874481376,15.31028408003421,1.1530025238834412,0.43185993561582037,0.7956979448400325,0.937072556075531,0.98940913483539,1.14910175946758,-0.17263781708784323,0.000383886645338915,0.025545997056080866,0.8227635824173278,1.4321038971511846,3.001275382848131,1.0323386485178694,1.4467130986566106,1.2567665657242395,1.5823990910728871,1.275827516690773,1.6913387612273785,2.3647927302877707,0.9088447318501461,104.79905036459215
2025-08-13 15:42:46,573.495145631068,23.335100963749607,,,,,,,13.93261092038472,13.98892981078321,0.04068927373059437,0.024294208985942544,570.0,14.825999999999999,0.02601052631578947,20.0,1.6748548493239095,560.0,590.0,0.9708737864077669,2.912621359223301,520.0,640.0,4.12,46.875,,,0.024315053562236615,0.02858497206342885,0.003493287395396207,0.056393313021061674,0.8506236601624985,0.4311690918594457,0.5068858439431105,-3.554874151582445,9.891667130747454,31.28174954802686,0.316212081282755,972.0987855772365,3.1624345152891418,3.694680510537386,395.7059378772426,0.7378640776699029,0.7352941176470588,0.9,0.47368421052631576,53.000000000000014,52.93175619310433,53.06712161707576,45.588235294117645,0.590909090909091,0.4090909090909091,7.610571074446905,6.332377902572626,0.5087689713322091,0.49123102866779095,22.312659758050984,21.924713665335076,0.5162477007970571,0.4837522992029429,16.66996666999901,16.13679149037876,1.1828347598065152,0.42064883700339806,0.8295803626653866,0.9725103413048162,1.0139593337215191,1.178348866857371,-0.16021544322426126,0.0004206770412679987,0.02317949315327538,0.7838145010658963,1.4021258263365712,3.0673369829331265,0.980981190888913,1.2933136634252045,1.2052128833106548,1.5347941021385483,1.2781332558704226,1.680557785141652,2.2031609669971233,0.8439272510037072,104.62163534789234
2025-08-13 15:42:47,573.9215686274509,23.59547123626863,,,,,,,13.96601249285189,14.035316135018155,0.0411127103877588,0.02433435726462065,570.0,14.825999999999999,0.02601052631578947,27.5,1.6894923478226378,560.0,590.0,0.9803921568627451,2.941176470588235,520.0,640.0,4.08,46.875,,,0.025695728343759435,0.0315661601705116,0.0025761233246222545,0.05983801183889329,0.8140276867683073,0.4294214923607776,0.5275268880172643,-3.4556696128716844,9.9244672151683,31.885003768959077,0.31125814778262756,994.1308400890825,3.2127673030373716,3.704413656722503,409.75639026454036,0.7254901960784313,0.7164179104477613,0.8958333333333334,0.47368421052631576,50.505050505050505,50.484235191849116,50.52580740848873,47.76119402985074,0.5685279187817259,0.431472081218274,7.483314773547883,6.519202405202648,0.4943419470012291,0.505658052998771,22.41817239395202,22.673310562456074,0.5008946937284325,0.4991053062715678,16.711888784409624,16.682011447388202,1.1813232515392142,0.5970770111462675,0.9497655593551091,0.9078793474968254,1.0,1.4846020690058634,-0.5701521094873014,0.0004481996769561824,0.035189542382138145,0.7905755335763343,1.4198170531585341,3.105172412092577,0.9963386326150753,1.2000072670087873,1.2487879943367695,1.6141211233132446,1.2721839648803093,1.678939701984106,2.347573694512916,0.8504071514277396,104.54390160573968
2025-08-13 15:42:48,574.1747572815534,23.61971060591507,,,,,,,13.967749969686825,14.036381161726082,0.04113679730147535,0.024326652804831636,570.0,14.825999999999999,0.02601052631578947,30.0,1.6910175695566705,560.0,590.0,0.9708737864077669,2.912621359223301,520.0,640.0,4.12,46.875,,,0.027328358600979725,0.03592721748420531,0.0027913412171625706,0.0660469173023476,0.7606589241984603,0.4137719021143225,0.5439650925680417,-3.3262601235439626,9.925220302775621,31.924078179611364,0.31090076421108576,995.4246558108003,3.2164604115319926,3.704978503603032,410.7301345574891,0.7184466019417476,0.7101449275362319,0.8775510204081632,0.45,50.495049504950494,50.474913332386194,50.51511692191289,47.82608695652174,0.5678391959798996,0.4321608040201006,7.479344493965091,6.524895204196199,0.4947447926952765,0.5052552073047234,22.45478916113883,22.69205172184173,0.5011876052253862,0.49881239477461364,16.735563186379533,16.695859797753496,1.1435276841097304,0.4612494057976466,0.6822782783120838,0.9129029812109071,0.9943173226579514,-0.6158491710011023,0.0,0.0004674407501960374,0.03027299610107141,0.7772460982910094,1.4497161875573867,3.1223751743144206,0.9911979477927972,1.4028295577135579,1.2527878875286955,1.6105692826299938,1.2874676802197644,1.6835599705314952,2.3647927302877707,0.8439272510037072,104.49780182617518
2025-08-13 15:42:49,574.5631067961165,23.91884559436166,,,,,,,13.862065601673441,13.929126983714413,0.04162962311962236,0.02412627166225692,570.0,14.825999999999999,0.02601052631578947,30.0,1.7254892800012542,560.0,590.0,0.9708737864077669,2.912621359223301,520.0,640.0,4.291666666666667,46.875,,,0.016206703907175952,0.009362404388912383,0.001824754396061836,0.027393862692150172,1.7310407918684938,0.5916180601949228,0.34177014370431297,-4.6710531423231325,9.849380146192981,32.43110164804765,0.30370168281921167,1003.5071562527962,3.292704836921442,3.708490583855568,427.1441810528698,0.6990291262135923,0.6956521739130435,0.875,0.42857142857142855,51.00000000000002,50.97442746153318,51.02455466182742,47.82608695652174,0.576530612244898,0.42346938775510207,7.479344493965091,6.410078697714333,0.4957598134220187,0.5042401865779813,22.834807839639925,23.02928364132757,0.5025818236039663,0.4974181763960337,16.990718688929654,16.903209960590456,1.2836299143516907,0.5538241021131465,0.7987803654537746,1.0756924165103479,1.1379491064304608,-0.33684961960723747,0.0,0.0002653391090071117,0.025269864030170657,0.7668867552561993,1.4804076526903693,3.17024875851024,0.9853484545917791,1.2476207691746077,1.2082214952037484,1.566389647263712,1.3090913803643365,1.6735650771964745,2.5530302395694884,0.8439272510037072,104.42717134166949
2025-08-13 15:42:50,574.3689320388349,23.914467805429094,,,,,,,13.93261092038472,14.000027733838351,0.04163607477956722,0.024257250250162714,570.0,14.825999999999999,0.02601052631578947,25.0,1.7164383576117797,560.0,590.0,0.9708737864077669,2.912621359223301,520.0,640.0,4.478260869565218,46.875,,,0.023113698369155167,0.03357508718547029,0.0015709988621195312,0.05825978441674499,0.6884181191093879,0.39673504803618603,0.5762995438723278,-3.3939709398384474,9.89951454739683,32.476863320457866,0.3048174464915433,1010.0383143898193,3.280652113289531,3.711307958410245,426.1811611411014,0.6601941747572816,0.6617647058823529,0.8444444444444444,0.4,49.00000000000001,48.9784644355763,49.02357221685901,48.529411764705884,0.5505050505050506,0.44949494949494945,7.3457740259011475,6.637725961546924,0.4940705492578038,0.5059294507421965,22.82803664913926,23.100376487868257,0.49886917834885197,0.5011308216511482,16.95699934089238,16.995393490911745,1.1331903786234734,0.4827446702675715,0.8412236802686186,0.9211706281086998,1.0,1.1838110448083135,-0.3343908223869797,0.000317062622040882,0.02732858810211574,0.7545406797545247,1.3922290966397053,3.169247738384038,0.9867363371501605,1.0519308625331232,1.2722849272437007,1.630500486463178,1.2861669369774522,1.657919179090151,2.5530302395694884,0.7790097701572681,104.46247464503043
2025-08-13 15:42:51,574.2718446601941,23.95264698408634,,,,,,,14.142135623730951,14.211973755246031,0.041709596607961,0.024626204044704787,570.0,14.825999999999999,0.02601052631578947,30.0,1.6937079109814956,560.0,590.0,0.9708737864077669,2.912621359223301,520.0,640.0,4.12,46.875,,,0.021900967122131968,0.03237870683669699,0.0013952066306572243,0.055674880589486185,0.6764003032174871,0.3933725028279237,0.5815676027298293,-3.43025426863031,10.04938301637971,32.51868032356803,0.3090341587169632,1026.649463127441,3.2358882401601288,3.7183922943418386,420.9072609782414,0.6893203883495146,0.676056338028169,0.8541666666666666,0.36363636363636365,50.000000000000014,49.99396983034289,50.006484911535445,47.88732394366197,0.5588235294117647,0.4411764705882352,7.512366043022427,6.674912392349771,0.4940053348308298,0.5059946651691702,22.855921310852384,23.13161107702043,0.4996559623983662,0.5003440376016339,17.012183612520655,17.023893304178085,1.170827250340835,0.6028502566107599,0.7669928663658148,0.8985003843651673,1.0,1.4644109046649993,-0.28185707552205197,0.000627242096203715,0.04809358583055713,0.7578060203001171,1.405342556090585,3.172903960674252,0.9896047826588048,1.5390073165183307,1.1852238149970127,1.5846340051088956,1.2991527402412333,1.6625857687201597,2.400722484994956,0.9088447318501461,104.48013524936603
2025-08-13 15:42:52,574.3689320388349,23.955428502338048,,,,,,,14.037764192684381,14.106742860669886,0.04170738904227213,0.024440326434186803,570.0,14.825999999999999,0.02601052631578947,30.0,1.7064988536295647,560.0,590.0,0.9708737864077669,2.912621359223301,520.0,640.0,4.291666666666667,46.875,,,0.019374084072917904,0.029547674225587288,0.0011318976017707563,0.050053655900275947,0.6556889697985299,0.3870663136278742,0.5903200014891298,-3.5217502446374476,9.974973537234591,32.5089029515363,0.3068382083549576,1018.7413609857751,3.2590465358316023,3.715034048870938,423.79211019156054,0.6699029126213593,0.647887323943662,0.8260869565217391,0.38095238095238093,50.48543689320388,50.474205220699005,50.496275170276185,46.478873239436616,0.5572139303482587,0.44278606965174117,7.446176505727986,6.637725961546924,0.4957819080954786,0.5042180919045213,22.890097961177627,23.08402448534694,0.5010682629071123,0.4989317370928879,17.02060705772217,16.98428085584861,1.245576943129816,0.33330263845978547,0.9122743046700306,1.0789256238999232,0.9989597155901224,-0.6430077807464727,0.0,0.00012703144345158743,0.012658233793554219,0.7579050171168085,1.4103919126989513,3.1761016847979535,0.9983155453552287,1.3975149343819444,1.1743760059127477,1.5484532314492532,1.2809269893331512,1.6566026379073469,2.595378374508539,0.9088447318501461,104.46247464503043
2025-08-13 15:42:53,574.757281553398,24.206815609438642,,,,,,,14.072640679214206,14.140762800777296,0.042116587969124666,0.02448449307363283,570.0,14.825999999999999,0.02601052631578947,30.0,1.7201331406971099,560.0,590.0,0.9708737864077669,2.912621359223301,520.0,640.0,4.291666666666667,46.875,,,0.01698189951546377,0.026567336527622203,0.0009622126228186238,0.0445114486659046,0.6392021833956746,0.3815175651308731,0.5968652408289862,-3.6280727678323474,9.9990292675801,32.8164151527106,0.30469596453633946,1030.8580091651638,3.281960105778609,3.720168959452102,430.8086613834593,0.6699029126213593,0.6388888888888888,0.8260869565217391,0.3181818181818182,50.96153846153847,50.937434323899865,50.98470679871968,45.83333333333333,0.5594059405940595,0.44059405940594054,7.479344493965091,6.637725961546924,0.5001076324674667,0.4998923675325338,23.207207134479376,23.202211974129163,0.5051460763775348,0.4948539236224651,17.241157980861324,17.06461318684102,1.1346869466623561,0.9417209047711217,1.0985741329044343,0.8096251565087369,1.0175420986774717,2.0314886877583596,-0.8068307976723998,0.0006098253097982464,0.07279021564557348,0.7386399358699207,1.4291143583028187,3.208510110932121,0.993229179067397,1.265713167770399,1.1694861744191642,1.6051400636503135,1.2815476532480878,1.6634986907541143,2.6095270677975573,0.9088447318501461,104.3918918918919
2025-08-13 15:42:54,574.5098039215686,24.3988090514576,,,,,,,14.925557853149837,14.997029408823234,0.042468916778987634,0.02597963994916866,570.0,14.825999999999999,0.02601052631578947,30.0,1.6346999751375164,560.0,590.0,0.9803921568627451,4.901960784313726,520.0,640.0,4.25,46.875,,,0.012673272769476943,0.005761388461990065,0.0008909535863893857,0.019325614817856395,2.19969072613087,0.6557759165192069,0.29812187173815985,-5.1565767808939755,10.604501192632988,32.9133275241637,0.3221947457256508,1096.508264848507,3.1037129353173905,3.7469820194496353,408.6140815243391,0.6666666666666666,0.6388888888888888,0.8260869565217391,0.3181818181818182,48.623853211009184,48.63416902385715,48.616015621486504,47.22222222222222,0.5111111111111111,0.488888888888889,7.582875444051549,7.416198487095662,0.49803655670835234,0.5019634432916474,23.22749645378589,23.31888799240296,0.49926661457985133,0.5007333854201486,17.277392620280356,17.30275320869825,1.2450549609904975,0.35042232796041706,0.8946326330300804,1.069843797010289,0.9871589211450056,-0.7686356623200572,0.0,0.00011428783616539063,0.01333181817641168,0.7012733750653188,1.3993664426872432,3.21644624726272,1.0036942710048729,1.5227299520650075,1.1636657403248976,1.60441155265064,1.2981617426544692,1.6734984327645965,2.3038577559310585,0.9812390208781611,104.43686006825939
2025-08-13 15:42:55,574.5631067961165,24.204062980478973,,,,,,,14.211290733558494,14.276031885331163,0.042126030533783956,0.024734081540326545,570.0,14.825999999999999,0.02601052631578947,30.0,1.7031572595530384,560.0,590.0,0.9708737864077669,2.912621359223301,520.0,640.0,4.478260869565218,46.875,,,0.01444313560190601,0.023087958846365306,0.0008583020360040982,0.03838939648427542,0.6255700513854549,0.3762272117984982,0.6014149989521795,-3.7684440594207955,10.094678954553038,32.75335073058574,0.30820293891722117,1038.7191056963632,3.2446153937181808,3.723468229858534,425.08810390523644,0.6601941747572816,0.6301369863013699,0.8260869565217391,0.3181818181818182,51.8867924528302,51.87798427463895,51.89328785862484,46.57534246575342,0.5776699029126214,0.42233009708737873,7.675343060027278,6.562721000522044,0.4967944180151294,0.5032055819848704,23.085755379422125,23.234239446176055,0.5038151564168767,0.4961848435831233,17.202659569491377,17.07189487978614,1.2274548031991115,0.42478107498364537,0.8026737282154661,1.0150642657072888,1.0043635420876256,-0.7984035240420098,0.0,0.00010610257113444369,0.014288547509828525,0.7519974946843679,1.4178427188548166,3.2086131641054436,1.002725665054859,1.1561868041910834,1.1379621426026054,1.5478076997900148,1.2976915556390185,1.6614035827044902,2.266060202686385,0.9088447318501461,104.42717134166949
2025-08-13 15:42:56,574.9514563106796,24.248460084834615,,,,,,,13.967749969686825,14.036381161726082,0.042174795486963276,0.024293790051971343,570.0,14.825999999999999,0.02601052631578947,30.0,1.7360319405386877,560.0,590.0,0.9708737864077669,2.912621359223301,520.0,640.0,4.478260869565218,46.875,,,0.012463833227036378,0.006214483865839321,0.0007863859006940861,0.019464702993569786,2.005610360588333,0.6403299979020403,0.31926939074756455,-5.080872603994272,9.925220302775621,32.963464358705764,0.3010976090003821,1027.8337554176396,3.32118213532121,3.718892986349366,437.91067578572404,0.6796116504854369,0.6527777777777778,0.851063829787234,0.36363636363636365,50.4854368932039,50.47437873401767,50.496086187364284,47.22222222222222,0.5628140703517587,0.4371859296482411,7.446176505727986,6.562721000522044,0.49407799889489623,0.505922001105104,23.170243938864964,23.446316946189135,0.4997918595398795,0.5002081404601204,17.209092781738438,17.216258090419196,1.232312553643684,0.4725104973658265,1.1187234756761386,1.0385856369066317,1.0,1.1307054520503836,-0.6696001236295553,0.00021157614859173993,0.019632616448189318,0.7325978478811677,1.4178427188548166,3.217354855600238,1.0003220103267494,1.2093170715516344,1.1258768897524916,1.583875369375913,1.288219265044568,1.650377652190039,2.595378374508539,0.8439272510037072,104.35663627152988
2025-08-13 15:42:57,574.7058823529412,24.320707159507048,,,,,,,14.00141435571407,14.071247279470288,0.04231852832258135,0.024362747599502476,570.0,14.825999999999999,0.02601052631578947,30.0,1.7370178855953653,560.0,590.0,0.9803921568627451,2.941176470588235,520.0,640.0,4.25,46.875,,,0.011745543554621367,0.019169946893201593,0.0008269610763805762,0.03174245152420353,0.6127061081628136,0.3700263524279283,0.6039214355760947,-3.954411492236111,9.9498743710662,33.09646865790612,0.3006325077732836,1034.544384468022,3.3263202552736955,3.721719237651844,440.35781629929664,0.6764705882352942,0.647887323943662,0.8478260869565217,0.38095238095238093,50.000000000000014,49.99385611725959,50.006606338046126,47.88732394366197,0.5606060606060606,0.4393939393939394,7.44983221287567,6.595452979136459,0.49295360013345363,0.5070463998665465,23.237247251713594,23.56706553193442,0.49856120800089837,0.5014387919991017,17.25499434710529,17.30471868864807,1.2272399791514088,0.4706302979173733,0.7566096812340355,0.9919248301927222,1.0031418245091475,-0.8440984774563391,0.0,0.00013856715974043925,0.017780392820951393,0.7130454676131892,1.3990333868973202,3.2149622914895617,0.9944030544548489,1.0950300345844097,1.1289093364606306,1.5471877531601794,1.2919354962217835,1.647702684091399,2.3837720089893635,0.7849912167025288,104.40122824974411
2025-08-13 15:42:58,575.0,24.24095217552804,,,,,,,13.787639750914225,13.856406460551018,0.04215817769657051,0.023978503914633437,570.0,14.825999999999999,0.02601052631578947,30.0,1.7581654738201786,560.0,590.0,0.9803921568627451,2.941176470588235,520.0,640.0,4.636363636363637,46.875,,,0.010822440978917044,0.01750390489300473,0.0007960936834174858,0.02912243955533926,0.6182872361950579,0.37161862619207925,0.6010452819291917,-4.045331286200842,9.797958971132712,33.02264449593567,0.29670425008931717,1016.4764901541898,3.3703595405154085,3.7140674483570195,445.1927397197018,0.6666666666666666,0.6470588235294118,0.8409090909090909,0.3333333333333333,49.99999999999999,49.99375325740182,50.0067195351231,47.05882352941176,0.5572916666666667,0.4427083333333334,7.314369419163897,6.519202405202648,0.4957918095241519,0.5042081904758479,23.252064722755033,23.448593468132824,0.5007677984995337,0.4992322015004665,17.235987263153643,17.209540023396343,1.220932822018419,0.2535728503664143,1.0811577596770334,1.0974433353307893,1.0,0.6503797545369121,-0.4357755547164331,0.00012450797101415864,0.008114255582487786,0.7602384754279643,1.4170660197866443,3.208519758222943,0.9833984594965377,1.0874266469694354,1.0600872210702064,1.519585983462138,1.2587851751944095,1.631564432670211,2.5331186311633336,0.7849912167025288,104.34782608695653
2025-08-13 15:42:59,575.0485436893204,24.167462586261856,,,,,,,13.862065601673441,13.929126983714413,0.04202682165093654,0.024105905064534264,570.0,14.825999999999999,0.02601052631578947,30.0,1.7434243409830883,560.0,590.0,0.9708737864077669,2.912621359223301,520.0,640.0,4.478260869565218,46.875,,,0.010599778077118089,0.0164200024037985,0.0007447532603978638,0.027764533741314455,0.6455405922879769,0.3817740350289154,0.5914020583520568,-4.109255028563316,9.849380146192983,32.866366087567094,0.2996796214084304,1016.9754307708906,3.3368969010979557,3.7142805708397786,438.6867005918143,0.6601941747572816,0.6521739130434783,0.8444444444444444,0.3181818181818182,51.000000000000014,50.99265523560147,51.00596954540563,46.3768115942029,0.5663265306122448,0.4336734693877551,7.412860112635672,6.486848843683046,0.49610449129239237,0.5038955087076078,23.149321569085146,23.33038642399798,0.5018923465096721,0.49810765349032804,17.18780940315571,17.122881454560464,1.1849034364346809,0.7484090474328866,1.1573938424045354,0.9142902200903493,1.0,1.6322791845146534,-0.8248272093289817,0.00041673691270435845,0.046805409889950925,0.7612363707794629,1.4103919126989513,3.2067092927688496,0.9832684974737327,1.304980587774424,1.080051443908209,1.617019211838862,1.2678443463324696,1.6387848101735476,2.35282227847578,0.8439272510037072,104.33901738983624
2025-08-13 15:43:00,575.4368932038835,24.405749042625594,,,,,,,14.002800840280099,14.070571223942723,0.04241255527906928,0.02433420763537793,570.0,14.825999999999999,0.02601052631578947,30.0,1.7429191003288886,560.0,590.0,0.9708737864077669,2.912621359223301,520.0,640.0,4.681818181818182,46.875,,,0.01784579709255985,0.016143083362709157,0.0010417924109327949,0.0350306728662018,1.1054763635665783,0.5094334659434356,0.46082709927859494,-4.126263595804148,9.949396327618198,33.13374531539575,0.3002798576771568,1035.6598342374152,3.330226701636248,3.7221872433898198,441.3715334981835,0.6601941747572816,0.6428571428571428,0.8444444444444444,0.3181818181818182,50.980392156862756,50.95755113133686,51.00215374489272,45.714285714285715,0.56,0.43999999999999995,7.446176505727986,6.600330024752062,0.5007739116866906,0.49922608831330945,23.447221038947852,23.41095692568398,0.5056733934449691,0.49432660655503086,17.395656340071422,17.199378776744734,1.1824055095066386,0.4594034540851777,0.812389287427405,0.9662294505704964,1.0,1.1720047811534835,-0.1651305910412943,0.00031950597503460333,0.028790324904746905,0.7475106840357024,1.4039939382192916,3.216969039369691,0.9739351815246615,1.2325764142212121,1.082312473180307,1.490958802526201,1.2512227226169572,1.6469732895603744,2.581246474604569,0.7790097701572681,104.26860131601146
2025-08-13 15:43:01,575.4901960784314,24.64108502579181,,,,,,,13.859264335483036,13.926966505294825,0.042817558307168053,0.024082537686870013,570.0,14.825999999999999,0.02601052631578947,30.0,1.7779504329609133,560.0,590.0,0.9803921568627451,2.941176470588235,520.0,640.0,4.636363636363637,46.875,,,0.011456826063258188,0.017235945918817087,0.0008511090701723167,0.02954388105224759,0.6647053847361153,0.38779014994668737,0.5834015472894628,-4.060758196921036,9.847852457251882,33.51503283218703,0.2938338896029438,1036.8861061411098,3.403283403937152,3.7227011651059643,456.2446200807635,0.6568627450980392,0.6428571428571428,0.8222222222222222,0.3333333333333333,51.000000000000014,50.97683856778309,51.021994269914885,45.714285714285715,0.5618556701030929,0.4381443298969072,7.3824115301167,6.519202405202648,0.5008217588764314,0.49917824112356846,23.718173615002666,23.679224356198105,0.5056734313711786,0.49432656862882157,17.564904776733187,17.366716242732327,1.220836596617638,0.38632749147062784,1.1783357751573575,1.0577507746032675,1.0,0.9233778205870555,-0.8121315547466237,0.00012120899507375793,0.011992088622653812,0.7187350947148969,1.3627638637096966,3.2447138632415222,0.9642350964884311,1.2394879874900964,1.0890056090152829,1.516430942646535,1.246133790705707,1.6438142570463232,2.5615226806410245,0.7849912167025288,104.2589437819421
2025-08-13 15:43:02,575.7281553398059,24.638641011175796,,,,,,,13.93261092038472,13.995867043944942,0.04279561592160382,0.024199981868459123,570.0,14.825999999999999,0.02601052631578947,30.0,1.7684152060205132,560.0,596.0000000000001,0.9708737864077669,2.912621359223301,520.0,640.0,4.681818181818182,46.875,,,0.01284419538154162,0.018877382625635174,0.0008780455726828709,0.03259962357985967,0.6804012842383889,0.3939982727124762,0.579067503015519,-3.969790759991884,9.896572495358788,33.46402258560935,0.29573768276186396,1040.429907708193,3.381374976165034,3.724182937689729,452.61763429120384,0.6504854368932039,0.6338028169014085,0.8222222222222222,0.3181818181818182,51.960784313725505,51.957023394279474,51.96194371725036,45.07042253521127,0.5707070707070708,0.42929292929292934,7.479344493965091,6.486848843683046,0.5014810494001528,0.4985189505998469,23.697656917118707,23.62756577069903,0.5070527222557708,0.49294727774422914,17.57156136233872,17.32543032899184,1.1490119889006236,0.587386318158944,1.0531845122728374,0.9252467809934726,1.0,1.3215475103348435,-0.7178084972771624,0.0003288141486393287,0.03062793261299777,0.7280272626045323,1.3862943611198904,3.2465342478982664,0.977996562692028,0.9983914801648742,1.0825856077004306,1.5171169438897347,1.2513339964187162,1.6531944971769703,2.224141780657165,0.7140922893108291,104.21585160202359
2025-08-13 15:43:03,575.9223300970874,24.592239059678953,,,,,,,14.245742398014512,14.315753148069673,0.04270061738278712,0.024735527090281435,570.0,14.825999999999999,0.02601052631578947,30.0,1.7262869405182053,560.0,596.0000000000001,0.9708737864077669,3.8834951456310676,520.0,640.0,4.681818181818182,46.875,,,0.015240495896590153,0.023158714165052142,0.0010329787612685245,0.039432188822910816,0.658089036721605,0.38649885668368344,0.5873048100133997,-3.765384147462305,10.122766128792728,33.44465492017472,0.30267216549112613,1063.593795574502,3.3039047326250373,3.73374590519182,441.99181468710594,0.6504854368932039,0.6388888888888888,0.8260869565217391,0.2727272727272727,50.47619047619049,50.47549086956201,50.47645837512229,45.83333333333333,0.5458937198067633,0.45410628019323673,7.479344493965091,6.82163129063324,0.5000113581110314,0.49998864188896885,23.649210894286444,23.64867367966184,0.5038620777054477,0.49613792229455217,17.53889634472253,17.403942373388812,1.2674704481718528,0.39818819688203644,0.9017691688924794,1.1008632673334975,1.064973835205326,-0.39847183235067485,0.0,8.902318063614904e-05,0.011655340622866188,0.7374477454314006,1.4403615823901663,3.239602814369855,0.9908217746579027,1.3260924430721883,1.0613711017413392,1.3882102267170386,1.2800076019782083,1.6704155397976073,2.4127071087233913,0.8439272510037072,104.18071476736345
2025-08-13 15:43:04,575.9803921568628,24.706587245308423,,,,,,,14.00141435571407,14.06983994363845,0.04289484083440782,0.024308838540984427,575.0,22.238999999999997,0.03867652173913043,30.0,1.7645779645986621,560.0,598.0000000000001,0.9803921568627451,2.941176470588235,520.0,640.0,4.857142857142857,46.875,,,0.010490801836753917,0.028052729639456774,0.0012807752768199724,0.03982430675303066,0.3739672385391822,0.2634271050042964,0.704412252884275,-3.573669338398451,9.948879234356095,33.635053614988756,0.295789010721915,1051.2745628748744,3.3807882096747215,3.728686266112724,454.8519707733244,0.6372549019607843,0.619718309859155,0.8181818181818182,0.2608695652173913,50.980392156862756,50.99318462860211,50.966603045285154,46.478873239436616,0.5656565656565656,0.43434343434343425,7.483314773547883,6.557438524302,0.4994373324767604,0.5005626675232394,23.77018848477861,23.796952978927077,0.5047658006533943,0.49523419934660573,17.62132033364557,17.454153819095133,1.1700592969347432,0.24838853915688075,1.0692379279107005,1.063269823126373,1.0,0.6091697250946684,-0.524027295319604,6.322726673227923e-05,0.005909552502437592,0.7376938006467233,1.4271163556401458,3.249272060715516,0.9775608673527327,0.928730141311231,1.0816627435021866,1.38581421028213,1.2795103004493469,1.6785633937283444,2.2299693175653066,0.7195752819773181,104.17021276595743
2025-08-13 15:43:05,575.8823529411765,24.710319373042584,,,,,,,13.96601249285189,14.035316135018158,0.042908624038991205,0.024251502796576316,570.0,14.825999999999999,0.02601052631578947,30.0,1.7693181490199772,560.0,598.0000000000001,0.9803921568627451,2.941176470588235,520.0,640.0,4.636363636363637,46.875,,,0.038891142270485735,0.07126431457788887,0.002414916548514196,0.1125703733968888,0.5457309524527787,0.3454829285620954,0.6330645659904905,-2.6413595736560214,9.924467215168303,33.64550195761981,0.29497159018965613,1049.020767528026,3.3901569956518047,3.7277541959947644,456.25413533536516,0.6372549019607843,0.6142857142857143,0.813953488372093,0.2608695652173913,49.50495049504951,49.48463753075579,49.52620591401507,48.57142857142857,0.5583756345177666,0.4416243654822336,7.416198487095662,6.595452979136459,0.4972250616441287,0.5027749383558713,23.724852282405852,23.856889700005315,0.5021200104441075,0.4978799895558923,17.576527185738062,17.502159668998278,1.2121970562797697,0.3849432088744349,0.8276225486753921,1.0200941531126095,1.0,-0.7036685106049019,0.0,0.00035359078323665005,0.02606697707408343,0.7432188974193799,1.510592077797468,3.24859827884238,0.982089417447537,1.19646056814212,1.192922324154786,1.4853167515180445,1.2769795239915243,1.677922922166766,2.3717027834413504,0.7195752819773181,104.18794688457609
2025-08-13 15:43:06,575.3398058252427,24.963327376121494,,,,,,,13.967749969686825,14.033614690910992,0.04338884103510823,0.024277391948662554,570.0,14.825999999999999,0.02601052631578947,30.0,1.7872117864579162,560.0,596.0000000000001,0.9708737864077669,2.912621359223301,520.0,640.0,4.904761904761905,46.875,,,0.03310299019742219,0.0654345108700575,0.001892242246187785,0.10042974331366747,0.5058949743379215,0.32961341038215325,0.6515451370386259,-2.7267054705533305,9.923264112502318,33.87377359213739,0.2929482918550786,1056.009933815882,3.4135717046430147,3.7306381135583817,462.5222202544158,0.6213592233009708,0.5972222222222222,0.7906976744186046,0.2608695652173913,48.54368932038836,48.47055605365362,48.61669442684797,50.0,0.5527638190954776,0.44723618090452255,7.37939330463924,6.637725961546924,0.4851618115448551,0.514838188455145,23.594288471081523,24.305186461222096,0.49050698245135665,0.5094930175486434,17.48064492519033,17.815744369172002,1.2315752979353216,0.2929133908617847,0.9659662185988127,1.0885964871004739,1.0,0.7909886817177396,-0.08134290774187937,0.00011265286567771546,0.011870678720631706,0.735564555450082,1.4870990602418561,3.2704640640455853,0.9671388701672246,0.7775254817649669,1.2551402578331576,1.51318944264315,1.3050786358975965,1.6692051698189068,2.3887422566226295,0.7140922893108291,104.28619642254472
2025-08-13 15:43:07,575.0485436893204,25.20013174598953,,,,,,,13.862065601673441,13.930520662939847,0.04382261640784943,0.024105905064534264,570.0,14.825999999999999,0.02601052631578947,30.0,1.8179203929714016,554.0,596.0000000000001,0.9708737864077669,2.912621359223301,520.0,640.0,5.15,46.875,,,0.022015536539369676,0.04554401596423088,0.0019590213997822885,0.06951857390338284,0.4833903219395523,0.31668567554286925,0.6551344972572095,-3.089076036810168,9.850365626224084,34.25043946255266,0.28759822591455714,1059.9084923494847,3.4770729089862016,3.7322384818462204,476.3651007044551,0.6213592233009708,0.5972222222222222,0.7906976744186046,0.20833333333333334,50.000000000000014,49.99365570900085,50.00674649849151,48.61111111111111,0.5663265306122448,0.4336734693877551,7.412860112635672,6.486848843683046,0.4951856524557991,0.5048143475442008,24.101838647596978,24.33503600127161,0.5006203875534073,0.4993796124465928,17.830439159542653,17.80832930266028,1.1479259008118308,0.632534763107651,1.0990355312226274,0.9200978033591911,1.0,1.3551086375522234,-0.7828899505606823,0.00033095473019073996,0.03484402517408746,0.71652362845927,1.4204273674893493,3.2828017239254486,0.945144326859257,1.2529326647633374,1.2756811901869969,1.5443905965161333,1.2891105214279783,1.6526433973691972,2.1049158383670115,0.7140922893108291,104.33901738983624
2025-08-13 15:43:08,575.6310679611651,25.114244958363162,,,,,,,14.314396975923007,14.368544020548253,0.043629064441076164,0.0248673113260258,570.0,14.825999999999999,0.02601052631578947,30.0,1.7544745336185403,560.0,600.0,0.9708737864077669,3.8834951456310676,520.0,640.0,5.15,46.875,,,0.02106112927604366,0.047640573018565266,0.002138804439953615,0.07084050673456253,0.44208387812288186,0.29730348139602025,0.6725046899660558,-3.044070506469867,10.160094912707088,33.822440538549145,0.3003950853613628,1079.5744052154114,3.328949269582895,3.740222689620374,450.3727549052563,0.6116504854368932,0.5857142857142857,0.7804878048780488,0.25,53.39805825242719,53.49657688559027,53.301456578348564,47.14285714285714,0.617224880382775,0.3827751196172249,7.991331937706871,6.293167755275525,0.5042189543731503,0.4957810456268498,24.016765944264794,23.81496247240577,0.5135920370272465,0.48640796297275335,17.89785507484362,17.417755279572262,1.2448556028698028,0.5462928320572973,0.9362788723355298,1.0122436926888225,1.0,1.3004461385971036,-0.36094487078072185,0.0003986006622577713,0.03447926165026771,0.7221975885187093,1.4260346897694047,3.264561052048259,0.9714072053220052,1.131929461801009,1.2885893915985958,1.5636352420389,1.2788011772322003,1.6491691884625248,1.9366429775561365,0.7140922893108291,104.23342890875358
2025-08-13 15:43:09,576.7647058823529,24.501435185520503,,,,,,,14.350630441182922,14.400220020321335,0.04248081572196314,0.024881256246824038,580.0,29.651999999999997,0.05112413793103448,30.0,1.7073420771262542,560.0,600.0,0.9803921568627451,3.9215686274509802,520.0,640.0,5.1,46.875,,,0.02084878296535743,0.04989817362609577,0.0024192281308804344,0.07316618472233363,0.4178265746074105,0.2849510746594039,0.6819840861657583,-2.9977708775739287,10.182493226947498,32.72568252962348,0.31114685592058305,1046.8699062419953,3.213916454470745,3.7268628255359237,420.71043826297074,0.6078431372549019,0.5797101449275363,0.775,0.2,53.92156862745098,54.0786095898529,53.77156443692369,46.3768115942029,0.6201923076923078,0.3798076923076923,8.031189202104505,6.284902544988267,0.5315257216314044,0.4684742783685957,23.85892411603072,22.399152596810232,0.5393738561533111,0.4606261438466888,17.800958681690606,16.450258919773734,1.1970551014761894,0.4203473866413614,0.9585039785973448,1.0090717383536254,1.0,1.048023124254577,-0.3797000734075578,0.00022093370364883295,0.0196714326004189,0.7293061106315055,1.419520008748211,3.227076634691647,0.9857040694989907,0.7014535924670253,1.2880465015134963,1.5729076049251656,1.2779741352536715,1.6519482465779705,1.8646542087465727,0.7849912167025288,104.02855685874553
2025-08-13 15:43:10,578.1372549019608,23.196551133067935,,,,,,,14.385085785955777,14.440043333908266,0.04012291360985127,0.024881783112896207,580.0,14.825999999999999,0.02556206896551724,30.0,1.6125417309443388,560.0,600.0,0.9803921568627451,4.901960784313726,540.0,640.0,4.857142857142857,23.4375,,,0.018989297750287164,0.0470092869010138,0.002430100291129889,0.06842868494243086,0.40394779419378174,0.27750493475452415,0.6869821762695393,-3.057410103152539,10.210652562034134,30.947096346462427,0.3299389528414131,992.7120152814625,3.0308637139933436,3.703793388352698,375.1857254797958,0.6176470588235294,0.5942028985507246,0.7804878048780488,0.20833333333333334,53.39805825242719,53.447560011500364,53.348875551670126,47.82608695652174,0.617224880382775,0.3827751196172249,8.031189202104505,6.324555320336758,0.48963006142442017,0.5103699385755798,21.654788380810025,22.108661480504935,0.5021826623751254,0.4978173376248743,16.33140930565493,16.26027232950855,1.1710617258767113,0.7921953399182304,1.2397137095599797,0.8956701710112023,1.0068819852356752,1.7387677154302055,-0.9342912930847198,0.00035170121373549697,0.047178809936426,0.7644798782249902,1.4500101755059982,3.1077309111621214,1.0442454892690416,1.0502626585385233,1.2955503023826342,1.5932145738876624,1.1972049879650053,1.6644791529169125,2.0215364770557045,0.7849912167025288,103.78158385619807
2025-08-13 15:43:11,579.1176470588235,22.607408808236162,,,,,,,14.246764440731901,14.314708906893948,0.03903767899847788,0.024600812137373522,580.0,14.825999999999999,0.02556206896551724,20.0,1.5868451326113697,560.0,600.0,0.9803921568627451,3.9215686274509802,540.0,640.0,4.857142857142857,23.4375,,,0.008633683558269241,0.04252082442874156,0.002384945787126533,0.05353945377413733,0.20304600567512474,0.16125834220669266,0.794196082166262,-3.157761336497356,10.122027738776183,30.414952029071053,0.33279775450907834,967.1738185789385,3.0048279666884623,3.6924746416104193,365.5667938497628,0.5980392156862745,0.5857142857142857,0.7560975609756098,0.2,51.45631067961165,51.472775266754155,51.438681918987626,48.57142857142857,0.5902439024390244,0.4097560975609755,7.7781745930520225,6.4807406984078595,0.47712968461629096,0.522870315383709,21.008998706841133,21.992982523219545,0.4884128236207652,0.5115871763792347,15.841054678651489,16.212514923148728,1.2874579546656946,0.4941378264349232,0.8237727953663585,1.040389041448233,0.9732172640993926,1.3103380042575377,-0.06162788094021312,0.00046741649455344053,0.03809165399760609,0.8049715773766506,1.4923125551966878,3.058099379940538,1.044830802461321,0.6628698674974481,1.2955852459764403,1.5899361064418442,1.182149213891223,1.6603292270062753,2.240531324311749,0.7849912167025288,103.60589131538852
2025-08-13 15:43:12,579.6039603960396,22.312363930305903,,,,,,,14.317821063276353,14.386792484073647,0.03849587900514001,0.02470276609823901,580.0,14.825999999999999,0.02556206896551724,20.0,1.558363093916202,560.0,600.0,0.9900990099009901,3.9603960396039604,540.0,640.0,4.590909090909091,23.4375,,,0.013983572858208239,0.038010821767465446,0.0015946294602274332,0.05358902408590112,0.36788399218922385,0.26094098738937876,0.7093023695773145,-3.26988437644448,10.17299852501213,29.754127122267946,0.3419020992687321,950.9245690002984,2.9248138637897294,3.685116178354309,348.10113404868514,0.594059405940594,0.5714285714285714,0.75,0.20833333333333334,51.45631067961165,51.52772941448496,51.387529334822545,48.57142857142857,0.5902439024390244,0.4097560975609756,7.817359599705715,6.513389472789295,0.4864059763479016,0.5135940236520985,20.751364808468413,21.323436388020088,0.4972781690680369,0.5027218309319631,15.680086934153975,15.765677622896225,1.1836223719180332,0.4313080171635948,1.2345673611177341,1.0314605353188178,0.9916343497528164,0.9642089138527634,-0.9709089970889133,7.992018529380833e-05,0.012466458293039641,0.8192342773474839,1.550597412411167,3.0451957746462206,1.0672326100978042,0.9175216398570566,1.271589057839678,1.5492241611007043,1.2020167874780667,1.6693483062329497,2.0260083241111646,0.8569975175819141,103.5189613939187
2025-08-13 15:43:13,579.9019607843137,21.867970068781876,,,,,,,14.281470373865709,14.3471803556802,0.03770977087093409,0.02462738762695355,580.0,14.825999999999999,0.02556206896551724,20.0,1.5312127880613076,560.0,600.0,0.9803921568627451,3.9215686274509802,540.0,640.0,4.434782608695652,23.4375,,,0.017470529989463548,0.03559238308402476,0.002221788696824669,0.05528470177031297,0.4908502459141321,0.31601020589831513,0.6438016656379489,-3.335623622330409,10.14498852040789,29.102924217676172,0.34859000575090504,927.5515619020084,2.8686995711362377,3.6743081710274197,333.95018488823223,0.6078431372549019,0.5915492957746479,0.7619047619047619,0.21739130434782608,51.92307692307693,52.001693784736105,51.84655225846514,47.88732394366197,0.5922330097087378,0.4077669902912621,7.810249675906654,6.4807406984078595,0.4865629750770973,0.5134370249229027,20.300473023550555,20.853560680130816,0.49802007027734074,0.5019799297226591,15.380331676851183,15.441356692983586,1.1853898220319508,0.5137537437043505,1.1291439950343234,0.9907022615335686,1.0,1.1952088029337382,-0.7694709969460073,0.00017243046947345038,0.020932661947150058,0.8150352598318173,1.504077396776274,3.0217456352653818,1.0830316196034715,0.664830674427379,1.330534924167191,1.6225114834851944,1.1940537416203623,1.6721546055427154,2.030128294657666,0.8504071514277396,103.46576500422655
2025-08-13 15:43:14,581.1764705882352,21.904116781426588,,,,,,,14.487960177299284,14.547974579178907,0.03768926976561255,0.024928676418429944,580.0,14.825999999999999,0.02556206896551724,20.0,1.511884110210866,562.0,600.0,0.9803921568627451,4.901960784313726,540.0,640.0,4.636363636363637,23.4375,,,0.019358364357129478,0.03282070042199388,0.0021366482848777604,0.05431571306400112,0.5898217925951699,0.35640449632538546,0.6042579314630501,-3.4166958522318307,10.286971477466915,29.044861170197386,0.35417526760369794,938.6565463200552,2.823460844021845,3.6794768232892108,328.02811293641133,0.5882352941176471,0.5694444444444444,0.7073170731707317,0.22727272727272727,52.830188679245296,52.80595099860184,52.85341956823728,47.22222222222222,0.6037735849056604,0.3962264150943397,7.999999999999999,6.4807406984078595,0.4862423369701883,0.5137576630298117,20.25329506969857,20.818453333899786,0.49936181919724676,0.5006381808027534,15.397986251134862,15.417652208033541,1.2758550908455992,0.38680189845587765,0.8890531923897216,1.0824541416176605,1.00700295115538,-0.574535767728418,0.0,0.00012587095955393535,0.013545570806445755,0.8102809742593142,1.5157054347713932,3.030472174795547,1.0924454569442579,0.9046214066999232,1.2167821536132217,1.3957202616695994,1.1992315002909109,1.6819145210820527,2.2722014362060383,0.8504071514277396,103.23886639676114
2025-08-13 15:43:15,581.5841584158416,21.89669716040877,,,,,,,14.866068747318506,14.940623220676647,0.03765009215528236,0.025561337137881668,580.0,14.825999999999999,0.02556206896551724,20.0,1.4729312458183288,570.0,600.0,0.9900990099009901,5.9405940594059405,540.0,640.0,4.590909090909091,54.6875,,,0.012302499499920357,0.02919632522055036,0.001281594581260983,0.042780419301731695,0.4213715050434162,0.2875731397850597,0.6824693562404736,-3.533712426238791,10.56461599449365,29.2618792246427,0.3610368258781113,971.1935780313948,2.76980055308155,3.6942759119520865,324.1982770424835,0.6138613861386139,0.6,0.7380952380952381,0.22727272727272727,50.46728971962617,50.46208947248988,50.4720493757702,48.57142857142857,0.5701357466063347,0.4298642533936651,7.977240352174656,6.926745121613612,0.47643379989264995,0.52356620010735,20.19777340463672,21.173273843516153,0.4872396015424834,0.5127603984575165,15.3555594841317,15.752576348526663,1.1740161655488972,0.30218832055870704,1.1067128811606164,1.060957886234236,1.0,0.691747962891891,-0.6514121884055125,7.684236601034608e-05,0.008019714412078263,0.7913102240254544,1.5505974124111672,3.038306598392585,1.1257359856547535,1.026814459581853,1.112685707462084,1.675129197379062,1.1965620435382838,1.6884910295901334,2.671056199586677,0.8569975175819141,103.1664964249234
2025-08-13 15:43:16,581.6831683168317,21.912065485968824,,,,,,,14.89966442575134,14.97472618255253,0.037670104069495336,0.02561474224682358,580.0,14.825999999999999,0.02556206896551724,20.0,1.470641543315421,570.0,600.0,0.9900990099009901,5.9405940594059405,540.0,640.0,4.809523809523809,23.4375,,,0.013828082718491327,0.029959331116384685,0.0012482991078683358,0.045035712942744346,0.46156179738368,0.3070470481076098,0.6652349692892205,-3.507914446470706,10.588730430094634,29.265072090197297,0.3618214367440927,973.5166038841219,2.7637942323115454,3.695313473022524,323.5305498042755,0.6039603960396039,0.5915492957746479,0.7380952380952381,0.21739130434782608,50.000000000000014,49.99341034032579,50.00675075888703,49.29577464788733,0.5675675675675677,0.43243243243243246,7.977240352174656,6.963106238227913,0.4762768316271171,0.523723168372883,20.196649387080186,21.178758178415418,0.48684465209410976,0.5131553479058902,15.354820254581458,15.76427363478328,1.2417199860162216,0.4086063042313781,0.857844724457272,1.062147876572961,1.0,-0.8995523412514084,0.0,0.00021138476820120364,0.02003681895389148,0.7942670095184292,1.5234954826333758,3.044955877191539,1.1179156737649734,0.7274474609383166,1.222919103111457,1.6434008017466057,1.2104729326710335,1.6973813839873222,3.005050367962565,0.7910746316140745,103.14893617021275
2025-08-13 15:43:17,582.156862745098,22.143879246418965,,,,,,,14.825720225271345,14.894347389476849,0.038037650440126886,0.025466882165336432,580.0,14.825999999999999,0.02556206896551724,30.0,1.493612378349982,570.0,600.0,0.9803921568627451,5.88235294117647,540.0,640.0,4.857142857142857,23.4375,,,0.030200823995784,0.036097335606208536,0.0019992656136767067,0.06829742521566924,0.8366496720214893,0.44219564501027675,0.5285314269494138,-3.321536222289294,10.53189404044723,29.500293671973395,0.3570098032770773,976.0738846040944,2.8010435310760764,3.6964528031012036,330.5264270189023,0.5980392156862745,0.5774647887323944,0.7317073170731707,0.20833333333333334,51.85185185185186,51.83676210851203,51.86538698771256,47.88732394366197,0.5855855855855856,0.4144144144144143,8.06225774829855,6.782329983125267,0.4804270795351489,0.519572920464851,20.44749349424128,21.264226685577675,0.4923225068602028,0.5076774931397972,15.5418787506054,15.782384745906333,1.2239578485783318,0.3295812084570653,0.9687951845334126,1.0637756851921618,1.0,0.9326490793276463,-0.2118145749164505,0.00010499028942663115,0.012356446408278075,0.7725803995596423,1.5198257537444133,3.0719220224328625,1.1206152915124177,1.0269664360038875,1.2279915024655077,1.6641639784818019,1.210244607226921,1.6935741787129568,2.4562892625359,0.8504071514277396,103.06500505220613
2025-08-13 15:43:18,582.5742574257425,22.38988456185224,,,,,,,14.832396974191326,14.901698093190792,0.038432670644919724,0.025460096777588783,580.0,14.825999999999999,0.02556206896551724,30.0,1.5095257092168648,570.0,600.0,0.9900990099009901,5.9405940594059405,540.0,640.0,5.05,23.4375,,,0.03536038877075727,0.04149910411436574,0.0020314258076472276,0.07889091869277023,0.8520759550208354,0.4482187475653999,0.5260314469904738,-3.182083439584145,10.537091772889852,29.873470545355836,0.35272405852181643,988.908966934769,2.835077380859034,3.702126424837504,338.7744025235877,0.5841584158415841,0.5652173913043479,0.717948717948718,0.20833333333333334,51.88679245283018,51.87216538729083,51.89979476493271,47.82608695652174,0.5863636363636364,0.41363636363636375,8.071648849616485,6.779350703393058,0.4804046406338427,0.5195953593661574,20.705669452465123,21.533682800429073,0.49213638651233,0.50786361348767,15.714265217092755,15.96338139162707,1.1628092388664715,0.5323595440317201,1.1041164358522044,0.9809329412606871,1.0030129161368229,1.2000167147371514,-0.7313915397451343,0.00013036142706175698,0.02058122294948287,0.7672333369864499,1.5105920777974677,3.0959061354072066,1.1169044927000404,0.665916454597578,1.2226813473629232,1.6355553730009216,1.2002996046712122,1.6861352086031673,2.439642706532498,0.8569975175819141,102.99116247450715
2025-08-13 15:43:19,583.1683168316831,22.44685693228818,,,,,,,14.832396974191326,14.905764595679692,0.03849121477353322,0.025434161195132837,580.0,14.825999999999999,0.02556206896551724,30.0,1.5133667856480764,570.0,600.0,0.9900990099009901,5.9405940594059405,540.0,640.0,5.05,54.6875,,,0.014015111181704617,0.04958569851550292,0.0016515958214116631,0.0652524055186192,0.2826442220496865,0.21478305773272263,0.7599060620279213,-3.004052823209171,10.539967224375467,30.06356901331214,0.35058935350318426,995.4734232322936,2.8523398956863,3.7049997798524577,343.00606921355455,0.5841584158415841,0.5652173913043479,0.717948717948718,0.2,50.943396226415096,50.93276288720928,50.95301026271733,49.275362318840585,0.5818181818181819,0.41818181818181815,8.040302522073697,6.816498108607267,0.4741345358635642,0.5258654641364358,20.701000317410127,21.801072626748613,0.4859233862138977,0.5140766137861025,15.703150619985133,16.151647193729406,1.192749148917978,0.5292511173662042,0.8431914093994157,0.9753174601577532,1.0,1.3068650426565096,-0.2503528166064964,0.00029990563302706175,0.032642910229270496,0.7566662604750856,1.4733057381095203,3.1067625014629794,1.1137233613344182,1.0663443402768182,1.2304931742561278,1.6179605957384264,1.2229242847450363,1.678414486116111,2.656587978797535,0.8569975175819141,102.88624787775892
2025-08-13 15:43:20,583.5643564356436,22.431413616437176,,,,,,,14.798648586948742,14.870144993281407,0.038438628694607305,0.025359068667828687,580.0,14.825999999999999,0.02556206896551724,30.0,1.515774463096579,570.0,600.0,0.9900990099009901,5.9405940594059405,540.0,640.0,5.315789473684211,23.4375,,,0.03471737839784087,0.047117984914562885,0.0017195725443051278,0.0835549358567089,0.736817978544551,0.41550362096356397,0.5639162358447269,-3.0551005055243294,10.514780361976472,30.021793430907504,0.35023824896321754,991.7146079979198,2.85519929065492,3.703356820418316,342.87281323246253,0.5841584158415841,0.5774647887323944,0.7317073170731707,0.24,51.40186915887851,51.4020998948142,51.4002617896911,49.29577464788733,0.589041095890411,0.4109589041095892,8.071648849616485,6.74199862463242,0.4720955793767755,0.5279044206232244,20.627737651183672,21.812943868309482,0.48487816868720657,0.5151218313127938,15.662935161673492,16.144024678756,1.213939573351841,0.49033124036364417,0.956414479682044,1.0048317622341165,1.0,1.252841738650865,-0.4012559703188298,0.00018915256608887122,0.023057220181229784,0.7763382126181604,1.514772685893022,3.10870407322208,1.1057238592196954,1.2353813146571242,1.2425024431896412,1.6339156618646722,1.2221916786955083,1.6778727894467602,2.451838949449715,0.9229204035497537,102.8164234815066
2025-08-13 15:43:21,583.3333333333334,22.308961629284713,,,,,,,14.792291275800338,14.865735737255015,0.038243934221630936,0.02535821361565772,580.0,14.825999999999999,0.02556206896551724,30.0,1.5081478057277968,570.0,600.0,0.9803921568627451,5.88235294117647,540.0,640.0,5.1,23.4375,,,0.032001446483539454,0.04832365924067586,0.0016007693149345736,0.08192587503914989,0.6622314407970707,0.39061464364276777,0.589846116597271,-3.029833998904275,10.51166254714022,29.791685995516364,0.35283879363934695,983.8216263079368,2.834155478442506,3.699886474925265,337.73708030492634,0.5882352941176471,0.5714285714285714,0.725,0.24,50.467289719626166,50.47932579157589,50.455548144384174,50.0,0.579185520361991,0.42081447963800916,7.999999999999999,6.819090848492928,0.47420015171459806,0.525799848285402,20.515208075382457,21.602564479228107,0.48582376429156016,0.51417623570844,15.57038474759435,16.018283180153983,1.1638051288804754,0.20014182400366853,1.1557636314369422,1.146700897936499,1.0008976839198638,0.29437314451954655,-0.5452815574433705,5.251879470270234e-05,0.004232865632545769,0.7778338694252205,1.5147726858930222,3.101560758590904,1.1089653813236309,1.1544031229580103,1.2294431514655633,1.668997734158114,1.2218458792528573,1.6769254053977471,2.2827544514380227,0.9158230861529503,102.85714285714285
2025-08-13 15:43:22,583.4653465346535,22.380153867404776,,,,,,,14.832396974191326,14.907119849998598,0.038357297481891775,0.025421213208778617,580.0,14.825999999999999,0.02556206896551724,30.0,1.5088696659310494,570.0,600.0,0.9900990099009901,5.9405940594059405,540.0,640.0,5.315789473684211,23.4375,,,0.02941296293644085,0.048438448278910945,0.0016153269490251005,0.0794667381643769,0.6072234760097924,0.3701292341407062,0.609543683279362,-3.0274613946891407,10.540925533894596,29.824740594264217,0.35342890914939884,987.6550597939663,2.8294233270467624,3.7015754029452115,337.54726704211873,0.5841584158415841,0.5652173913043479,0.717948717948718,0.24,49.99999999999999,49.99299211013979,50.00713611223587,50.72463768115942,0.5772727272727273,0.42272727272727273,8.008833506910612,6.853444168423419,0.4700473530012946,0.5299526469987056,20.447841999199873,21.71176890745913,0.4819538268962872,0.5180461731037131,15.528291222244262,16.09923299509337,1.1992223804848199,0.6069412664588958,1.355063957891482,1.1013507306992252,0.9587981197895523,1.0026240707188787,-0.9180194051930382,9.836187940085275e-05,0.023609625151153887,0.7392517324344174,1.4663370687934272,3.10870407322208,1.1195068815040448,0.7689437453068819,1.1082723154788212,1.7319119779105716,1.2279415152798734,1.6729294223436906,2.2784645455475965,0.9229204035497537,102.83387069404378
2025-08-13 15:43:23,583.5643564356436,22.297271510919966,,,,,,,14.832396974191326,14.907119849998598,0.03820876183581467,0.025416900142404542,580.0,14.825999999999999,0.02556206896551724,30.0,1.5032817385967807,570.0,600.0,0.9900990099009901,5.9405940594059405,540.0,640.0,5.05,23.4375,,,0.025900371428603765,0.048872385451175865,0.0016425357860012774,0.07641529266578091,0.529959223178876,0.3389422525918305,0.639562890440399,-3.018542756712592,10.540925533894596,29.824740594264217,0.35342890914939884,987.6550597939663,2.8294233270467624,3.7015754029452115,337.54726704211873,0.5841584158415841,0.5652173913043479,0.717948717948718,0.2,50.0,49.99299211013979,50.007136112235884,50.72463768115942,0.5772727272727273,0.4227272727272729,8.00883350691061,6.853444168423419,0.4700473530012946,0.5299526469987056,20.447841999199873,21.71176890745913,0.4819538268962872,0.5180461731037131,15.528291222244262,16.09923299509337,1.2708699094817106,0.13658787454998533,1.1510006733237068,1.2192946105986995,1.0271539698154668,-0.21712673334631516,0.0,8.369953284713216e-06,0.000978654050021706,0.7585400405645633,1.514772685893022,3.0998578129628473,1.1121954794959101,0.8651707087370838,1.1521670387086658,1.7733445216509875,1.2279415152798734,1.6623115241117727,2.439642706532498,0.9229204035497537,102.8164234815066
2025-08-13 15:43:24,583.4653465346535,22.380153867404772,,,,,,,14.866068747318506,14.940623220676645,0.03835729748189177,0.025478923188175278,580.0,14.825999999999999,0.02556206896551724,30.0,1.5054520632054544,570.0,600.0,0.9900990099009901,5.9405940594059405,540.0,640.0,5.315789473684211,23.4375,,,0.02280826709428228,0.04847663913839664,0.0017065387577846463,0.07299144499046357,0.4705001728598931,0.3124786349586888,0.6641413818390659,-3.026673264327186,10.564615994493652,29.879471686809136,0.35357439064619084,991.6912989225236,2.828259134301002,3.7033466127217594,338.02755490522446,0.5841584158415841,0.5714285714285714,0.725,0.20833333333333334,50.46728971962617,50.47932579157589,50.455548144384174,50.0,0.5791855203619907,0.42081447963800905,8.040302522073695,6.853444168423419,0.4741077439172715,0.5258922560827285,20.573654330848775,21.66812349414632,0.48578475494164564,0.5142152450583544,15.619246415427941,16.069805112808194,1.1502854834980374,0.674941973299727,1.3194850972434153,1.0322936892120056,0.9694212274208569,1.1486474356517329,-0.9255053314099853,0.00014038216461406312,0.03042472084683711,0.7723537238875426,1.5453590557495778,3.10870407322208,1.1076950123554332,0.9433871508624024,1.1048412665155667,1.7106356520296562,1.23959888895492,1.650974038156945,2.2890989885340915,0.9888432895175933,102.83387069404378
2025-08-13 15:43:25,583.5294117647059,22.278483107059678,,,,,,,14.892353011455972,14.965306413154526,0.038178852098791786,0.025521169475277373,580.0,14.825999999999999,0.02556206896551724,30.0,1.4959679702678221,570.0,600.0,0.9803921568627451,5.88235294117647,540.0,640.0,5.368421052631579,23.4375,,,0.02095282976204908,0.047542019109883905,0.0017435449756723132,0.07023839384760529,0.44072233687889417,0.2983102063454067,0.6768665469918744,-3.0461413461412232,10.582069647276091,29.804976659332695,0.3550437152904992,990.8531042682956,2.8165545732355612,3.7029793842912677,335.7893732600906,0.5882352941176471,0.5714285714285714,0.75,0.20833333333333334,50.92592592592593,50.93177869144099,50.91928561619622,50.0,0.5848214285714285,0.41517857142857156,8.093207028119322,6.819090848492928,0.47049218697755285,0.5295078130224471,20.44395865639907,21.688273055243744,0.48329275293465573,0.5167072470653444,15.547595401613627,16.076087647789368,1.231204146092133,0.8373201795658105,1.206626269030692,0.9947280029925004,0.9962474047973806,1.702131648415256,-0.7530671912721256,0.00031093914166074513,0.051074247697918795,0.7514798288129043,1.4687380303309656,3.104808778948226,1.110064695266353,0.713758097862714,1.0754412799031767,1.7817594666373846,1.25392498337098,1.650547382966211,2.4562892625359,0.9812390208781611,102.8225806451613
2025-08-13 15:43:26,583.6633663366337,22.348278335354053,,,,,,,14.933184523068078,15.008078632603981,0.03828967110891873,0.025585269496690006,580.0,14.825999999999999,0.02556206896551724,30.0,1.496551408765591,570.0,600.0,0.9900990099009901,5.9405940594059405,540.0,640.0,5.611111111111111,23.4375,,,0.01900849622911591,0.04746279225889291,0.002139108532173677,0.0686103970201825,0.40049258217745004,0.2770497920821585,0.6917725930798974,-3.04780919576305,10.612314173695202,29.930137509091594,0.35456950942746585,997.8578620865774,2.820321469871254,3.7060387934257712,337.6504376523598,0.594059405940594,0.5797101449275363,0.75,0.2,49.532710280373834,49.523117687669405,49.54300560506268,52.17391304347826,0.5784753363228701,0.4215246636771301,8.071648849616485,6.890192121758831,0.4695387915724667,0.5304612084275334,20.50899839464412,21.798947592982927,0.4817052301035203,0.5182947698964797,15.584776711634822,16.16584151283755,1.2522766301247192,0.3078783296440766,1.2047943954723932,1.1189838968892343,1.000839124239374,0.8297515082647418,-0.7787156169203605,4.184368030841436e-05,0.00618237365884355,0.7479386410154611,1.4563619237366077,3.11123210949529,1.1071946559861179,1.0841243665187783,0.9986826548252059,1.642380850270148,1.254339936811297,1.6476589812528524,2.9869192650568137,0.9229204035497537,102.79898218829517
2025-08-13 15:43:27,583.6633663366337,22.348278335354056,,,,,,,14.966629547095765,15.040685563571303,0.03828967110891874,0.02564257140384516,580.0,14.825999999999999,0.02556206896551724,30.0,1.4932071556278133,570.0,600.0,0.9900990099009901,5.9405940594059405,540.0,640.0,4.809523809523809,54.6875,,,0.019630982136056963,0.04312377938466379,0.0019376012525742447,0.064692362773295,0.4552240646847937,0.3034513085393231,0.6665976868982946,-3.1436807081549207,10.635370755695877,29.883274603197375,0.35589709952864207,998.460049763478,2.809800926516181,3.70630080258927,335.8642106696058,0.5841584158415841,0.582089552238806,0.7435897435897436,0.2,50.94339622641508,50.93339939190839,50.952367921455945,50.74626865671642,0.5892857142857141,0.41071428571428564,8.164965809277259,6.816498108607267,0.4680010858745815,0.5319989141254186,20.443328911155756,21.796339234844094,0.48163842261665724,0.5183615773833427,15.565930162318656,16.148452720075852,1.146641122815698,1.0192969696402312,1.2473305615026504,0.8454051908019281,0.9960088074317353,2.0972562584447143,-0.8943162617687218,0.0004383823620530724,0.07376560032084428,0.7358365202625938,1.421385680931161,3.101189134358241,1.1136101748145448,1.1105377996874175,1.046382041009199,1.7278792374440697,1.2104804316733286,1.642307626059066,2.656587978797535,0.9229204035497537,102.79898218829517
2025-08-13 15:43:28,584.3564356435644,22.865512965344053,,,,,,,15.297058540778355,15.362291495737217,0.03912939358691544,0.02617761627615408,580.0,29.651999999999997,0.05112413793103448,30.0,1.494765343571771,570.0,600.0,0.9900990099009901,6.9306930693069315,540.0,640.0,5.315789473684211,54.6875,,,0.021910006653004525,0.04094659490080385,0.0020855046404876882,0.06494210619429606,0.5350873914200468,0.3373775187927136,0.630509191960889,-3.195486624745951,10.862780491200215,30.318511197156788,0.3582887174294662,1034.6625921777018,2.791045186056865,3.7217688575851495,338.48133890094243,0.594059405940594,0.5882352941176471,0.75,0.24,52.77777777777778,52.766746197212356,52.78775046284569,50.0,0.6196581196581197,0.3803418803418804,8.55758863420784,6.7044384514659345,0.47298960462407413,0.5270103953759258,20.851325564044547,22.009869228015493,0.48969835056766176,0.5103016494323384,15.93753589815723,16.269355217460806,1.2892477504285693,0.3792773885279024,1.3022304857670894,1.177388060867965,0.9834583878530245,0.8327646535194675,-0.8291586281578189,3.569821542504405e-05,0.008075000743428576,0.7211950088508541,1.471287573953283,3.136727120450404,1.1075955048471187,0.7586962759745969,1.0061532853046073,1.63018958628918,1.2379764860930045,1.633477373732329,2.2997328487032505,0.9888432895175933,102.67705862419517
2025-08-13 15:43:29,584.6534653465346,22.740464218465007,,,,,,,15.874507866387544,15.949414985629986,0.03889562889187072,0.02715199482650537,580.0,29.651999999999997,0.05112413793103448,30.0,1.4325145957195524,570.0,600.0,0.9900990099009901,7.920792079207921,540.0,640.0,5.315789473684211,54.6875,,,0.023848304122126494,0.03991336899296163,0.002161189083747038,0.06592286219883517,0.5975016573101593,0.361760750772558,0.6054556440916621,-3.221043948726975,11.277939492297303,30.148119193559843,0.3740843473481578,1068.168721204014,2.6731939122523793,3.7356099664938176,322.3670747763332,0.594059405940594,0.5942028985507246,0.7560975609756098,0.24,51.78571428571429,51.80814593424746,51.76232434197031,50.72463768115942,0.611111111111111,0.38888888888888895,8.819171036881967,7.035264706814484,0.4641918383676734,0.5358081616323265,20.54040364301982,22.068097088124954,0.4822377220175081,0.5177622779824922,15.806422106156086,16.378276139231787,1.229549365081228,0.21154621983681166,1.2389316395934298,1.1688806844241053,1.0004590007921235,0.4758490559390629,-0.8311378252155123,1.3574860005982184e-05,0.002792124750003592,0.7232223926338941,1.5155060925998969,3.131028033744919,1.1107292491109673,1.0808865653626496,1.0195332397536994,1.6336723588403004,1.2450024720163906,1.6412585640529151,2.3422715390223843,0.9888432895175933,102.62489415749366
2025-08-13 15:43:30,585.049504950495,22.56651334948479,,,,,,,16.0,16.079348697800373,0.038571972386156096,0.027348113047893047,580.0,14.825999999999999,0.02556206896551724,30.0,1.4104070843427994,570.0,600.0,0.9900990099009901,7.920792079207921,540.0,640.0,5.05,54.6875,,,0.03027699871026992,0.03527438695084545,0.0024624437910378528,0.06801382945215323,0.8583281334544709,0.4451594470440657,0.518635507439858,-3.3445981605340247,11.369816501277725,29.949115094598294,0.37963781117955026,1069.7623849628633,2.6340895731459386,3.7362574331055103,315.55460718251607,0.594059405940594,0.6,0.7619047619047619,0.24,50.877192982456144,50.88399850010544,50.86975856363365,51.42857142857142,0.6015624999999999,0.3984375000000001,8.819171036881967,7.177405625652733,0.4588501993288136,0.5411498006711863,20.287076047214256,22.031433008409607,0.476830055709758,0.5231699442902419,15.641982488214724,16.38443151163921,1.1889056353074081,0.7056633643866541,1.4868383239094696,1.1870338835415437,0.8875604955666727,0.7825406619787527,-0.9248547614888705,0.00016132733735167696,0.0334888969300942,0.7093984699425797,1.4508328822574617,3.1225972918588614,1.1102919057351222,0.0,0.9329907555863688,1.5731280351315664,1.2510798355904067,1.6452620201123656,2.537448976633578,0.9888432895175933,102.55542392959892
2025-08-13 15:43:31,585.3465346534654,22.6523445336523,,,,,,,15.968719422671311,16.046334425184106,0.03869903244077947,0.027280796036701666,580.0,29.651999999999997,0.05112413793103448,30.0,1.4185448397002973,570.0,600.0,0.9900990099009901,7.920792079207921,540.0,640.0,4.809523809523809,54.6875,,,0.0360650085065963,0.03301368960786531,0.002522444421738488,0.0716011425362001,1.092425867419679,0.5036931985877537,0.46107769287583994,-3.410832966934592,11.34647188523482,30.01842868316163,0.37798353821229314,1070.0366902703022,2.64561786137457,3.7363687793374147,317.6691643782845,0.594059405940594,0.5942028985507246,0.7560975609756098,0.2,51.32743362831859,51.35534907141548,51.29926482158827,52.17391304347826,0.6196078431372548,0.380392156862745,8.932971498777984,6.999278462091573,0.45841690066640894,0.5415830993335911,20.324424898991545,22.091261012701676,0.47857377193885814,0.5214262280611418,15.698411181911487,16.386178812053956,1.250521196619052,0.4762214031110552,1.3541132529338713,1.3117870645264884,0.8127568739955198,0.27986961254270515,-0.5888792232580787,6.872754887430192e-05,0.014465938262530356,0.7263693539223159,1.5114575040738967,3.12802710933401,1.1202026330400172,0.9843177764577226,0.9652431860089731,1.5727121122499383,1.239503713275991,1.6487571641407124,2.3529092225556867,0.8569975175819141,102.50338294993233
2025-08-13 15:43:32,585.7,22.484787225269816,,,,,,,16.174552903130323,16.256549668750438,0.03838959744795939,0.02761576387763415,580.0,14.825999999999999,0.02556206896551724,30.0,1.3901334621075214,570.0,600.0,1.0,9.0,540.0,640.0,4.3478260869565215,54.6875,,,0.04144444277335229,0.03402182337561268,0.002238610927381807,0.07770487707634678,1.218172298286054,0.533357034110384,0.43783382273657645,-3.3807530962839527,11.495116509469357,29.773071498180812,0.3860910524522715,1075.194144358869,2.590062612558523,3.73845700045618,308.4564773938796,0.59,0.5882352941176471,0.75,0.20833333333333334,50.442477876106196,50.44590118813661,50.43894266747737,52.94117647058824,0.6061776061776062,0.39382239382239387,8.949974347244048,7.213932098830055,0.45356112812974286,0.5464388718702573,20.051254706635966,22.008702168128753,0.4733604608405387,0.5266395391594612,15.526668285996154,16.377175999724827,1.1949805455334916,0.4962679242616195,1.3195505181191318,1.2415114247184613,0.8716051455766198,0.34863475248083464,-0.6572519390947589,0.0001042764645215388,0.01802229333004314,0.7409496283116055,1.5155060925998967,3.101088312828688,1.121172188305766,0.9539183288824198,0.9716711158894534,1.4804938818179338,1.2192016722840353,1.6529929556244292,2.533641916579497,0.9301398665684615,102.44152296397473
2025-08-13 15:43:33,585.4455445544554,22.517759767581122,,,,,,,16.24807680927192,16.32993161855452,0.0384626033574445,0.027753352912843973,580.0,14.825999999999999,0.02556206896551724,30.0,1.3858723116529965,570.0,600.0,0.9900990099009901,8.91089108910891,540.0,640.0,4.391304347826087,54.6875,,,0.0436156006631955,0.03204835748551236,0.002560123015477451,0.0782240811641853,1.3609309208096603,0.5575725532863759,0.4096993791240033,-3.440509345430662,11.547005383792513,29.76812748799317,0.38789827772841745,1079.8682142433029,2.577995462769594,3.740340867931003,306.96839039677286,0.6039603960396039,0.6,0.7619047619047619,0.20833333333333334,50.0,49.991289260478645,50.00881384117193,52.85714285714286,0.5984848484848484,0.40151515151515155,8.932971498777984,7.316785737969476,0.4562575232536932,0.5437424767463067,20.107428648852316,21.95068853755452,0.47485890932149644,0.5251410906785035,15.55806328992569,16.361052545727016,1.159836818732834,1.0595245256574182,1.5662488761433782,1.0978801731042405,0.7837040436584974,1.3296435330301994,-0.9420555557678312,0.00019255142554791852,0.06344082798540633,0.7451107601138185,1.6020029339465824,3.107465906116147,1.1339393877715098,0.9095759313143891,0.9529120792588757,1.4262701209936572,1.2408092196740543,1.6603525200586713,2.56200024323994,0.9229204035497537,102.48604769152715
2025-08-13 15:43:34,585.6435643564356,22.512922581671102,,,,,,,16.34013463836819,16.419685155509548,0.038441338643259194,0.02790115973753487,580.0,29.651999999999997,0.05112413793103448,30.0,1.377768487219721,570.0,600.0,0.9900990099009901,8.91089108910891,540.0,640.0,4.208333333333333,54.6875,,,0.04833914268227963,0.03045846457233343,0.0023405235668938888,0.08113813082150695,1.5870511977871626,0.5957635724764142,0.37539026674570536,-3.4913913407852064,11.610470718408891,29.701800782056463,0.39090123873644195,1083.3841587470047,2.558190921145256,3.7417525910015477,303.93150840928763,0.6039603960396039,0.589041095890411,0.7441860465116279,0.20833333333333334,51.26050420168068,51.285689961023905,51.23502974112915,50.68493150684932,0.602996254681648,0.3970037453183521,9.01737940385849,7.316785737969476,0.4622091026191499,0.5377908973808502,20.19305498672674,21.781586259958203,0.4808758535071384,0.5191241464928619,15.637656490185812,16.247659116552047,1.2278044775646746,0.7054463958012107,1.3226160118645867,1.0877485946780672,0.9073021937995724,1.25107608469511,-0.8329344633191709,7.126346748281166e-05,0.026229355924082057,0.7416546430117248,1.5860905484371093,3.10608032504213,1.1457295202116693,1.1204811820831226,0.9756589936099445,1.3869304900416648,1.2565504063942716,1.6813465284547755,2.4167927686313875,0.9229204035497537,102.45139475908708
2025-08-13 15:43:35,585.940594059406,22.368648498368522,,,,,,,16.431676725154983,16.509562579476675,0.03817562518308923,0.028043246861112762,580.0,14.825999999999999,0.02556206896551724,30.0,1.3613125959400556,570.0,600.0,0.9900990099009901,8.91089108910891,540.0,640.0,4.208333333333333,54.6875,,,0.04998698003391194,0.030503011341570106,0.0023039410156177696,0.08279393239109982,1.6387555797085747,0.6037517314407141,0.36842085477327946,-3.4899298677320094,11.674023654371625,29.346071614305032,0.3978053283520581,1076.2679673432217,2.5137923721197595,3.738890524646854,295.07972390288074,0.6138613861386139,0.6027397260273972,0.75,0.20833333333333334,51.66666666666667,51.7191359054069,51.6151617374211,50.68493150684932,0.6074074074074073,0.39259259259259266,9.101004495564366,7.316785737969476,0.46404783128855936,0.5359521687114406,19.990853969359147,21.483893426650503,0.4836447680187934,0.5163552319812066,15.531621377894279,16.048255828952726,1.2108022618654928,0.6987430239459784,1.3332899978310462,1.235430796572395,0.7555780268380943,0.6122386872477712,-0.6400503445544481,9.535641732971545e-05,0.026430418977880534,0.7382566622758175,1.6171007851796693,3.098446017989254,1.1556965187325883,0.9390807177109403,0.9984052892358133,1.3945499334105,1.2704641343263825,1.6941448389288478,2.285554261935999,0.9229204035497537,102.39945927678271
2025-08-13 15:43:36,586.9,21.728117983643017,,,,,,,16.51445647689541,16.587318848075416,0.037021840149332116,0.028138450292887054,585.0,22.238999999999997,0.03801538461538461,30.0,1.3157028821409769,570.0,600.0,1.0,9.0,540.0,640.0,4.166666666666667,54.6875,,,0.0503866593416748,0.031428087253421035,0.0022882162293040393,0.08410296282439987,1.6032365869224214,0.5991068286961309,0.37368585122310516,-3.460053287376723,11.729005639177558,28.139776862069144,0.41681231861463713,1036.887686579225,2.3991613379463184,3.722701827063941,270.04745882365063,0.61,0.589041095890411,0.7441860465116279,0.21739130434782608,52.49999999999999,52.58627850026297,52.416716748408454,49.31506849315068,0.611111111111111,0.3888888888888887,9.175166127617949,7.319250547113998,0.4842042948193289,0.5157957051806709,19.58100453251361,20.209683405356035,0.5030102555659715,0.4969897444340287,15.290510324572335,15.198729090225795,1.0562476380252017,1.3796658113697902,1.4215843554248861,0.826345201359215,0.8756695850770346,2.2965311272905167,-0.9314371996177051,0.0004004357343612152,0.11451317848675652,0.7625196299029349,1.6661332561106457,3.052625732650902,1.197338157115961,1.2921560662248925,0.9818280532919583,1.3931946742205734,1.2799466947747138,1.717073452036047,2.177561892504449,0.9965784284662087,102.23206679161697
2025-08-13 15:43:37,588.7,21.539486877581254,,,,,,,16.636336037952493,16.701262794536795,0.03658822299572151,0.028259446301940702,590.0,14.825999999999999,0.025128813559322033,20.0,1.2947254027835935,570.0,602.0,1.0,9.0,540.0,640.0,4.166666666666667,54.6875,,,0.050715997974953,0.034708244743434764,0.0024344391802762697,0.08785868189866403,1.461208953372561,0.577245149585202,0.3950462719605464,-3.36077801957654,11.809576176395554,27.60952963329584,0.42773550774851815,1024.3377838745287,2.337893352047681,3.717413302424589,258.1925431313832,0.6,0.5810810810810811,0.7441860465116279,0.22727272727272727,53.278688524590166,53.23514701825308,53.32387861057867,48.64864864864865,0.6167883211678832,0.38321167883211676,9.285714285714285,7.319250547113998,0.4942934353199778,0.5057065646800221,19.41115731222522,19.63397815960602,0.5132765036101417,0.4867234963898582,15.215411890512085,14.816621189449954,1.165999849622848,0.2831008524032692,1.2357593263206899,1.265129688741868,0.8250220882117851,-0.09190267850518996,-0.3962547722062641,6.348807540588644e-05,0.007236499144159059,0.7432313217727882,1.6817585740137264,3.0546230420530995,1.1921890082800084,1.2468911631107933,1.007249175291472,1.3928426180864015,1.2917940327896027,1.7258616441262953,2.456573501504478,0.9965784284662087,101.91948360794972
2025-08-13 15:43:38,589.1,21.229624812911077,,,,,,,15.175738212786563,15.251617376915558,0.036037387222731414,0.02576088645864295,590.0,14.825999999999999,0.025128813559322033,20.0,1.3989187554002291,570.0,610.0,0.0,9.0,540.0,640.0,4.166666666666667,54.6875,,,0.025733333713948092,0.0447908563979727,0.00294123748733146,0.07346542759925226,0.574522029346883,0.350278145174915,0.6096861865734051,-3.10575125865162,10.784522071279575,27.794635165267337,0.3880073261316307,941.698229975533,2.577270924159695,3.680881864078447,286.5372202362804,0.61,0.5945945945945946,0.75,0.21739130434782608,49.137931034482754,49.17351434136046,49.10155684363342,51.35135135135135,0.530701754385965,0.46929824561403516,7.857142857142856,7.388628880563286,0.44782782192724563,0.5521721780727544,18.600152863621904,20.65371776267443,0.4586735651231582,0.5413264348768418,14.27761150241267,15.510768745534618,1.0775458102546864,0.5991825810085989,1.2252771921414338,1.1883544739803853,0.75849573740423,0.17520455787142986,-0.5616218150048635,0.0001633608250243057,0.027017906753084117,0.757234295117434,1.6894806201076367,3.047912697422529,1.204441484554014,1.1681384974173705,1.0373301011348073,1.4061959297630648,1.292063064771988,1.709109272599174,2.2538861075912306,0.9965784284662087,101.85028008827022
2025-08-13 15:43:39,589.0,21.05788079162629,,,,,,,15.439683882250906,15.518257844571737,0.03575191984995974,0.02621338519906775,590.0,14.825999999999999,0.025128813559322033,20.0,1.363880306891123,570.0,610.0,0.0,10.0,540.0,640.0,4.166666666666667,54.6875,,,0.023859008138292663,0.051766281108228396,0.0034302016579758673,0.07905549090449693,0.4608986318412625,0.30180077139885914,0.6548094321590477,-2.9610162855292326,10.97306535409801,27.489995556563045,0.3991657740184053,947.6599091611597,2.5052248090636415,3.6836226181075795,275.474475477404,0.62,0.6081081081081081,0.7777777777777778,0.21739130434782608,50.000000000000014,49.997245896400635,50.002836901987834,51.35135135135135,0.5466101694915254,0.4533898305084747,8.112726208286103,7.388628880563286,0.4353922073513444,0.5646077926486556,18.139069112505542,20.656089354754524,0.45067748068924557,0.5493225193107547,14.050661101863941,15.512347729571708,1.1791225261009997,0.6198984099746259,1.3038643379048427,1.3100774660318235,0.584712771178264,0.0005617957367105575,-0.4899771833142222,8.247049051917048e-05,0.02365425445374222,0.7570914076343245,1.6486586255873816,3.0389467279001314,1.2121574692915826,0.9071497658931907,1.0718737411885564,1.4549560210500552,1.2563733338959882,1.6859484895341843,2.4135594955200346,1.063016990363956,101.86757215619694
2025-08-13 15:43:40,588.8,20.854474122094064,,,,,,,15.472360498448174,15.550769355267064,0.035418604147578234,0.026277786172636167,590.0,14.825999999999999,0.025128813559322033,20.0,1.347853427031105,570.0,602.0,0.0,11.0,540.0,640.0,4.166666666666667,54.6875,,,0.05821325409077969,0.052420895217395416,0.0034240820552465887,0.1140582313634217,1.1104971376273278,0.5103818759498018,0.4595976510486793,-2.948450003449499,10.996054463777297,27.50405228665729,0.39979761342701053,950.1308945963333,2.5012655564102464,3.6847535498664015,275.17975458528946,0.63,0.6164383561643836,0.8,0.20833333333333334,50.427350427350426,50.422714226564544,50.43159951946286,52.054794520547944,0.5611814345991563,0.43881856540084396,8.237544710479138,7.284313590846835,0.4339925490375806,0.5660074509624196,18.11915005617383,20.692252014438488,0.45152118545794856,0.5484788145420514,14.074102842016021,15.511778072142947,1.2117355554046811,0.319036231390567,1.277530371016899,1.2655769205854646,0.8536719650167219,0.12132357321514231,-0.5374673759758679,4.008801032050223e-05,0.006578651541553088,0.7673503471925782,1.6502599069543555,3.0246460051538353,1.2172767957721244,0.8605048440456027,1.1114915217548331,1.4786999127412632,1.268199641654086,1.6791988914626557,3.185781594096148,1.063016990363956,101.90217391304348
2025-08-13 15:43:41,588.7128712871287,20.720201077047182,,,,,,,15.684387141358123,15.763402186230246,0.03519576704981106,0.026641828141223855,590.0,14.825999999999999,0.025128813559322033,20.0,1.3210717696715184,570.0,610.0,0.0,11.881188118811881,540.0,640.0,4.04,54.6875,,,0.033624654323560384,0.056912271144816076,0.004370334531110799,0.09490725999948726,0.5908155420120346,0.3542895909516515,0.59966193466257,-2.8662442995054063,11.146408580454253,27.23114675395353,0.40932571371919807,953.5660091267794,2.443042219150715,3.686320871745771,266.1073647831897,0.6435643564356436,0.6351351351351351,0.8085106382978723,0.2727272727272727,50.0,49.997248353392195,50.002804631800615,51.35135135135135,0.5447154471544716,0.4552845528455285,8.226589066968621,7.521014330903548,0.44381191085926003,0.55618808914074,18.141174775141277,20.30844975159678,0.45829195445211873,0.5417080455478813,14.085080580156257,15.313373042520512,1.200289791209444,0.3636304023871244,1.3536543473182565,1.2439238873042133,0.9071539092678718,0.24851786444257495,-0.8017637119825393,8.557693138035004e-05,0.010142560693759512,0.7741618355283566,1.7086928705294415,3.0143418814985,1.2129927174920563,1.3392035987790802,1.1189119464482953,1.4150939844830384,1.2603019136529292,1.6784625793924772,2.861353116146786,0.9888432895175933,101.91725529767912
2025-08-13 15:43:42,588.7,20.678149302726748,,,,,,,15.0420286618071,15.113123903442325,0.03512510498169993,0.02555126322712264,590.0,14.825999999999999,0.025128813559322033,20.0,1.374691523838816,570.0,602.0,0.0,10.0,540.0,640.0,4.3478260869565215,54.6875,,,0.06135680296037342,0.05456573498181833,0.0035803360660867836,0.11950287400827854,1.1244566389661557,0.5134337016540953,0.4566060476339531,-2.9083491576678244,10.686592397036572,26.856160370104632,0.39791959274016414,901.6397280825958,2.5130705254138763,3.662003149320744,269.96570020759265,0.64,0.6338028169014085,0.8,0.21739130434782608,48.214285714285715,48.29126936673552,48.13503845425929,52.112676056338024,0.5178571428571429,0.48214285714285726,7.693092581620719,7.423074889580902,0.4217051906974165,0.5782948093025836,17.440076875662232,20.422954448261635,0.4348569330928946,0.5651430669071054,13.478500563831204,15.365531380529868,1.2298987077633519,0.5782397063348697,1.346892234542775,1.410070159218174,0.5782878133210163,-0.17990280650366852,-0.39074094362034106,0.00014438470485274885,0.02486032353343033,0.7633617241440414,1.6847873496758872,3.0236022649495515,1.188433883534134,1.0314520052109288,1.1198020981138181,1.4231304829972895,1.2876114823143034,1.6562221902537904,2.1086210751369405,0.9301398665684615,101.91948360794972
2025-08-13 15:43:43,587.8,19.826520347527175,,,,,,,15.34123643496623,15.416301036965308,0.03373004482396594,0.026099415506917713,590.0,14.825999999999999,0.025128813559322033,20.0,1.2923678239087655,570.0,600.0,0.0,10.0,540.0,640.0,4.0,54.6875,,,0.03971217090113735,0.04587146566904903,0.0037175187493819046,0.0893011553195683,0.865727099012937,0.4446994079642701,0.5136715813462421,-3.0819120182118724,10.900971004051375,25.78053834762379,0.42283721375648176,882.8908971869455,2.3649763253238985,3.6528771491257706,243.88145138494065,0.65,0.6486486486486486,0.8125,0.22727272727272727,48.71794871794872,48.74420194480354,48.69211264636433,51.35135135135135,0.51931330472103,0.48068669527897,7.857142857142856,7.5592894601845435,0.4408540768007605,0.5591459231992394,17.11746358606069,19.277670965995515,0.4527581963697809,0.5472418036302192,13.318075189336948,14.641916797606171,1.2274739393420715,0.16413401994763643,1.120983648971368,1.2030506589451861,0.9962670304338659,-0.5137486709899572,0.0,4.0662255008285665e-05,0.0029815316194437423,0.7993932977363118,1.7083778602890038,2.958304737908851,1.2401268066684383,1.5189098116803796,1.1027470355257394,1.4050715483436194,1.208836377138431,1.669230935033757,2.4028184420865166,0.9965784284662087,102.07553589656347
2025-08-13 15:43:44,587.0297029702971,19.72534179452643,,,,,,,15.394804318340652,15.464197817585436,0.033601948410308134,0.02622491543518984,590.0,14.825999999999999,0.025128813559322033,20.0,1.2812986372958686,570.0,600.0,0.0,9.900990099009901,540.0,640.0,4.04,54.6875,,,0.05652917684449326,0.039444512589574356,0.0029532309422026174,0.09892692037627024,1.4331315849352029,0.571423598647199,0.3987237492034168,-3.2328603392214212,10.934839142424869,25.438676510900933,0.4298509451833743,873.8900289206563,2.3263878123459754,3.648426894040277,236.72090798868712,0.6336633663366337,0.6266666666666667,0.7872340425531915,0.22727272727272727,47.89915966386555,47.94596811538761,47.85212394146875,53.333333333333336,0.5189873417721518,0.4810126582278481,7.8817010931151215,7.58786910639328,0.4114794624251743,0.5885205375748259,16.31806258924958,19.515304147248024,0.4282608624062278,0.5717391375937718,12.814062173797167,14.805790312160873,1.2017506911545484,0.4597694371531287,1.2894257014219936,1.2587880488606005,0.7834191366702568,0.22875109585563624,-0.5666369925567476,4.7785510448178515e-05,0.012279608063154743,0.8215743536764575,1.7439688053917068,2.9478677742218142,1.2695240266288814,0.0,1.14379347171232,1.4535542764405929,1.2170990347485275,1.6695532799586033,2.276101209851005,0.9888432895175933,102.20947883285544
2025-08-13 15:43:45,586.0,19.12214856276788,,,,,,,15.275252316519467,15.349968121654426,0.03263165283748785,0.026066983475289192,580.0,14.825999999999999,0.02556206896551724,30.0,1.2518384748439262,570.0,600.0,0.0,10.0,540.0,640.0,3.8461538461538463,54.6875,,,0.047300996975632795,0.03466154503154521,0.0029822390360393076,0.08494478104321732,1.3646534490192088,0.5568440626336713,0.4080479648762703,-3.3621244188980826,10.854066549819173,24.825509386635282,0.43721425332212593,846.5264282118974,2.2872081420072803,3.6346106311160518,227.12442879436153,0.67,0.6666666666666666,0.8333333333333334,0.23809523809523808,48.69565217391305,48.681959852630136,48.71027203046225,51.388888888888886,0.5194805194805194,0.4805194805194804,7.824607964359515,7.525466966323384,0.44657875034250605,0.5534212496574941,16.590030920181828,18.46826441150676,0.458281864674671,0.541718135325329,12.970227749128146,14.101585787324622,1.2519815330019846,0.44894467030384666,1.3535489036198296,1.3572343497727484,0.7559427069450733,0.011682076673030117,-0.4917908677912927,7.454940344952172e-05,0.014574673127606012,0.805085902117415,1.6160824551527688,2.892350399858711,1.259622822076196,1.4784966753692412,1.12061275952867,1.4390280617116906,1.1862270348096877,1.6574059846815274,2.798579561707891,0.9965784284662087,102.38907849829351
2025-08-13 15:43:46,585.6435643564356,19.04814119982096,,,,,,,15.231546211727817,15.306960191462913,0.032525143891494794,0.026008219228816732,580.0,14.825999999999999,0.02556206896551724,30.0,1.250571736778403,570.0,600.0,0.0,9.900990099009901,540.0,640.0,3.740740740740741,54.6875,,,0.04914213238663182,0.029792894521560965,0.002733378769370916,0.0816684056775637,1.6494581401302888,0.6017275833772321,0.36480318520220356,-3.513485352775639,10.82365535073596,24.761896436895043,0.43710930535226666,841.9915450216916,2.287757290351207,3.632277840453293,226.59683638571286,0.6732673267326733,0.6712328767123287,0.8367346938775511,0.25,49.13793103448276,49.12128036205523,49.1551391759975,50.68493150684932,0.521551724137931,0.47844827586206884,7.817359599705715,7.487363091276263,0.44803317847846863,0.5519668215215314,16.57444485411871,18.39671962414204,0.4598283588282483,0.5401716411717518,12.95807341647155,14.044570107160611,1.2915435884284938,0.22100843948280513,1.4048414431345098,1.3248016139760033,0.9333865515381565,0.11757588341459035,-0.8621573427051583,3.005477142735072e-05,0.0038069399586001047,0.8109367279886781,1.6422277352570913,2.885442005732368,1.258879867222943,0.9581658029129582,1.1140321911362856,1.4362340947734282,1.1974466636854515,1.654691892523417,3.1520285705797275,0.9888432895175933,102.45139475908708
2025-08-13 15:43:47,585.049504950495,19.05905361639122,,,,,,,15.297058540778355,15.372808212009684,0.03257682205543262,0.02614660539209027,580.0,14.825999999999999,0.02556206896551724,30.0,1.2459293115460253,570.0,600.0,0.0,9.900990099009901,540.0,640.0,3.607142857142857,54.6875,,,0.05670380442392199,0.025058182162763554,0.002095333904788696,0.08385732049147424,2.26288579337506,0.67619385035904,0.2988192565169217,-3.686554871540234,10.87021693259229,24.761488507989853,0.4389969096197416,845.5997232216889,2.2779203636449252,3.6341349421096556,225.6187956260395,0.6831683168316832,0.6805555555555555,0.8571428571428571,0.23809523809523808,49.137931034482776,49.137284670736776,49.13941214392455,51.388888888888886,0.5256410256410257,0.47435897435897434,7.8817010931151215,7.487363091276263,0.443163097199341,0.5568369028006589,16.48384578055654,18.477395417486235,0.45649171270718225,0.5435082872928177,12.91972104649291,14.09742436537163,1.1616411771790982,0.4061840044946925,1.2497807875178342,1.2314987600650538,0.8201170192137601,0.149224100582523,-0.5450092254999647,6.395522843807681e-05,0.011078455763217702,0.8325150538811492,1.6696567724271552,2.877888002653498,1.2654289460683914,1.3855744175958045,1.104349204803537,1.618299287912562,1.2017130643683576,1.6531163459563774,2.802324344156593,1.0547661754854327,102.55542392959892
2025-08-13 15:43:48,584.8514851485148,19.163186654945395,,,,,,,15.716233645501712,15.792531158875084,0.032765902355670985,0.026872178740404148,580.0,14.825999999999999,0.02556206896551724,30.0,1.219324367860252,570.0,600.0,0.0,10.891089108910892,540.0,640.0,3.607142857142857,54.6875,,,0.05528037842363069,0.021652786302685436,0.0018891590724628418,0.07882232379877897,2.5530376391686214,0.7013289606222829,0.274703729338932,-3.832621135230839,11.167005874540417,24.707889387396047,0.4519611408102269,866.8067123031029,2.212579599669362,3.644892375674767,218.6726880377585,0.693069306930693,0.6986301369863014,0.8627450980392157,0.25,51.26050420168068,51.24427425275725,51.27593421611477,50.68493150684932,0.562753036437247,0.437246963562753,8.378664583453629,7.385489458759962,0.44208790072388826,0.5579120992761117,16.428199302517374,18.455190751020854,0.46256139447020445,0.5374386055297958,13.040087279716584,14.055951056439053,1.264031453626801,0.20630188373646563,1.172371151446809,1.2383090077034897,1.0013130453448431,0.33387368033049025,-0.18038170538029982,6.577258768984464e-05,0.005380158112335362,0.819697238995198,1.701375407759786,2.8857782240927343,1.268000671433194,1.0867988163365934,1.1442486327498709,1.660940233549201,1.2225700991190533,1.65321955665974,2.8465525066347808,0.9888432895175933,102.59014728288471
2025-08-13 15:43:49,584.8514851485148,19.005991759765585,,,,,,,15.297058540778355,15.372808212009682,0.03249712489819408,0.02615545814488935,580.0,14.825999999999999,0.02556206896551724,30.0,1.2424605494644665,570.0,600.0,0.0,9.900990099009901,540.0,640.0,3.4827586206896552,54.6875,,,0.03829488835290047,0.020509404284037837,0.0018148568084317702,0.06061914944537008,1.8671867706418372,0.6317292258845002,0.33833210250699564,-3.8868717524665293,10.87021693259229,24.597774392219012,0.44191871830611046,840.008919949154,2.262859568006158,3.631254007766682,222.64523654035858,0.693069306930693,0.6944444444444444,0.86,0.3157894736842105,50.86206896551724,50.88890630195966,50.83550519848047,50.0,0.5427350427350426,0.4572649572649572,8.00883350691061,7.351217861035273,0.44657762938230394,0.5534223706176961,16.437822854685475,18.298865671086958,0.462290502793296,0.537709497206704,12.929490213141317,13.944333775567925,1.2589695742863327,0.2627748794364342,1.312916493142874,1.2729860464410243,0.8850322350003159,0.17055169525475122,-0.6519568643223714,1.250758916185083e-05,0.003997895963531284,0.8407386763737335,1.6952992030404928,2.870079658694776,1.2672726778202665,1.533966403602381,1.1198083488542125,1.6300505809496084,1.179864344628777,1.6487088574591158,2.3848362634982316,0.9888432895175933,102.59014728288471
2025-08-13 15:43:50,585.5445544554456,19.0512596709379,,,,,,,15.556349186104045,15.629549842616335,0.03253596933995143,0.026567319374306873,580.0,14.825999999999999,0.02556206896551724,30.0,1.2246613548605438,570.0,600.0,0.0,10.891089108910892,540.0,640.0,3.4827586206896552,54.6875,,,0.05185926336809786,0.022586757439867825,0.0014151602540592727,0.07586118106202495,2.296003023283068,0.6836073818267757,0.2977380146691974,-3.7903914984301745,11.051760680607146,24.46766573800343,0.4516883955726695,849.5205392187252,2.2139156325505285,3.636143993415851,216.677390677547,0.7128712871287128,0.7183098591549296,0.8823529411764706,0.3157894736842105,51.724137931034484,51.692134505090834,51.75562956169975,50.70422535211267,0.5702479338842976,0.42975206611570255,8.348471099367217,7.247430753394785,0.44116285347911177,0.5588371465208882,16.25144593411598,18.29090407052565,0.46304842506445454,0.5369515749355455,12.919103386970486,13.911909003483746,1.2385298034264545,0.28984948425694723,1.310589246206587,1.3072172716160855,0.8574294571243204,0.015825093931065126,-0.5116335366238299,4.200850398678103e-05,0.006524932259847717,0.8501283093544858,1.798149267326826,2.8876483469206895,1.2813923854256013,1.2631487971865258,1.168975343489442,1.6218455498102766,1.209137209098048,1.641833145661964,2.802324344156593,1.1206890614532723,102.46871829556984
2025-08-13 15:43:51,585.8415841584158,19.092790614924432,,,,,,,15.297058540778355,15.374122295716148,0.032590364240449005,0.02611125422711871,580.0,14.825999999999999,0.02556206896551724,30.0,1.2481347681338573,570.0,600.0,0.0,10.891089108910892,540.0,640.0,3.607142857142857,54.6875,,,0.051919392305011414,0.024899416406555974,0.0012694929562095901,0.07808830166777699,2.085165027857485,0.6648805415937976,0.31886231195665354,-3.6929109132738493,10.871146130092178,24.782284320893755,0.4386660240568218,846.3822393953892,2.2796385978378546,3.6345366514516892,225.97860752200515,0.7227722772277227,0.7285714285714285,0.8823529411764706,0.3333333333333333,50.000000000000014,49.99706057069755,50.00298978231839,52.85714285714286,0.5512820512820513,0.4487179487179487,8.071648849616485,7.28219081254419,0.43299628301700616,0.5670037169829938,16.307351010194665,18.660973157687117,0.45208463214807876,0.5479153678519213,12.866258432839208,14.164431196172723,1.2764804707639232,0.31325549224654425,1.3110727585376942,1.2463930839323407,0.992694834339289,0.4706437936926071,-0.7064757879949575,5.695463687318962e-05,0.007660548339064128,0.8727617448726841,1.8115620965242345,2.882757017724855,1.2790115866545602,1.5702648639865704,1.2710614961346773,1.7375901722572957,1.2039683161282602,1.6272443134728998,2.772977449373991,1.1206890614532723,102.41676525266183
2025-08-13 15:43:52,585.6,19.139044654920223,,,,,,,15.439683882250906,15.518257844571737,0.03268279483422169,0.026365580400018622,580.0,14.825999999999999,0.02556206896551724,30.0,1.2396008105400407,570.0,600.0,0.0,11.0,540.0,640.0,3.4482758620689653,54.6875,,,0.05119799296794418,0.020923035166033773,0.0014776769890986123,0.07359870512307656,2.4469677827172247,0.6956371431036396,0.2842853706603249,-3.866904565890701,10.97306535409801,24.880253309427754,0.4410351139769159,857.6945217253722,2.2673931582970073,3.640302746118445,225.65326452197186,0.72,0.7246376811594204,0.88,0.3333333333333333,50.0,49.99718650590624,50.00286387712271,52.17391304347826,0.5466101694915254,0.4533898305084747,8.112726208286103,7.388628880563286,0.4339550051112208,0.5660449948887792,16.389931879251066,18.718897877140098,0.45229954972079306,0.5477004502792068,12.9314769755257,14.230055770612669,1.2591300158725862,0.26855380104031923,1.3208591925340119,1.3617360672781373,0.8007017962625502,-0.13958141751671693,-0.34778888034435806,5.2563460807639915e-05,0.006418148325886509,0.8509566428856652,1.7458497679239773,2.874862380598585,1.304978653144243,1.401709798045731,1.2647404323287839,1.708034740667045,1.185294304852362,1.6312628066218697,2.7837724001971877,1.063016990363956,102.45901639344262
2025-08-13 15:43:53,585.8415841584158,19.145094762506307,,,,,,,15.652475842498529,15.728440430755949,0.032679644600526234,0.026717932399735533,580.0,14.825999999999999,0.02556206896551724,30.0,1.223135237846837,570.0,600.0,0.0,11.881188118811881,540.0,640.0,3.607142857142857,54.6875,,,0.04965092630700239,0.021787088082216174,0.0017628256456701842,0.07320084003488875,2.2789152051728387,0.6782835590867252,0.29763439971224487,-3.8264377744665894,11.121686886076192,24.707889387396047,0.4501269498053351,863.288956170715,2.221595486412148,3.6431262950930385,219.5637421672387,0.7326732673267327,0.7428571428571428,0.8846153846153846,0.2777777777777778,51.28205128205129,51.26818156574221,51.29508535333937,51.42857142857142,0.563265306122449,0.4367346938775512,8.348471099367217,7.351217861035274,0.43822337125129257,0.5617766287487073,16.356237805544254,18.51899788941839,0.4592966466036113,0.5407033533963888,12.985058429758503,14.088890780836632,1.2458576655426243,0.4885891481046305,1.3467445326076672,1.3290470474318756,0.7653969085280252,0.18090227060074593,-0.5362216091872792,7.269456234342407e-05,0.015447820150265737,0.8285067518220846,1.6739764335716716,2.886069768434536,1.2809968029465035,1.3093435567147174,1.2891359738545323,1.7305254157819576,1.2249802443616338,1.6370372455744375,2.8170387345758727,1.0547661754854327,102.41676525266183
2025-08-13 15:43:54,586.1386138613861,19.18177765639582,,,,,,,15.297058540778355,15.374122295716148,0.03272566796108071,0.026098022172611722,580.0,14.825999999999999,0.02556206896551724,30.0,1.2539520330174405,570.0,600.0,0.0,10.891089108910892,540.0,640.0,3.8846153846153846,54.6875,,,0.054109358343050334,0.03945134067404209,0.0013326586549505966,0.09489335767204302,1.371546756550477,0.5702122853535802,0.4157439639810009,-3.232687248134822,10.871146130092178,24.92412729088265,0.43616957991018157,851.2265616147288,2.2926862533740326,3.637015276819164,228.5728160686049,0.7128712871287128,0.7285714285714285,0.8823529411764706,0.25,50.000000000000014,49.99730468747751,50.00273845699637,51.42857142857142,0.5427350427350426,0.45726495726495736,8.00883350691061,7.351217861035274,0.4389918699186992,0.5610081300813007,16.51384481903202,18.668289972706404,0.4555737704918033,0.544426229508197,12.977836584895126,14.187061967607221,1.2473486909955604,0.3576636407367757,1.2561864508527627,1.25493307483591,0.9843134005808714,0.40018208386189924,-0.5035043428352706,0.00014646502348701203,0.012722664737172073,0.8389326937774886,1.7186372043990925,2.9019831032797576,1.262480310883359,1.4416848349997577,1.1577222221668373,1.7624108461902834,1.2251715091689068,1.623014279096539,2.772977449373991,0.9888432895175933,102.36486486486487
2025-08-13 15:43:55,586.0,19.17489941764409,,,,,,,15.34123643496623,15.418975156853067,0.032721671361167395,0.02617958436001063,580.0,14.825999999999999,0.02556206896551724,30.0,1.2498926992572812,570.0,600.0,0.0,11.0,540.0,640.0,4.0,54.6875,,,0.047369798958886336,0.026504528082910393,0.0017980901707747381,0.07567241721257147,1.787234196764645,0.6259850114979119,0.35025348811650214,-3.630439689533534,10.902861892357715,24.968956194618425,0.4366566951127743,855.2454472905317,2.2901286323841488,3.639060880954685,228.72848600816488,0.72,0.7246376811594204,0.88,0.2631578947368421,50.442477876106196,50.44368833647044,50.440912273813595,50.72463768115942,0.5450643776824033,0.45493562231759643,8.04959119256046,7.3540215292764275,0.441549256848412,0.5584507431515882,16.59166485315322,18.659191591529723,0.4581263653958234,0.5418736346041768,13.039924481504997,14.18180283854057,1.2833261772852893,0.2590331770745431,1.3348266592636935,1.3552969333093885,0.8279562190653493,-0.01781201387514475,-0.42097431581204675,3.089228883943915e-05,0.004801604487415154,0.8569743205200604,1.845826690498331,2.903954687222182,1.2784577998734454,1.431254564191731,1.1926005456217825,1.7525014416192073,1.2471377810339963,1.6232269617540733,2.7689926994708327,0.9965784284662087,102.38907849829351
2025-08-13 15:43:56,586.1386138613861,19.129573807573603,,,,,,,15.427248620541512,15.503665255791496,0.032636603962245506,0.02632013700464008,580.0,14.825999999999999,0.02556206896551724,30.0,1.2399860972035166,570.0,600.0,0.0,10.891089108910892,540.0,640.0,4.04,54.6875,,,0.04765848183186642,0.02862119188332694,0.0019014393847464975,0.07818111309993986,1.6651466516888664,0.6095907303205572,0.3660883140246433,-3.5536078606012267,10.962746835616436,24.834401034602685,0.44143391339866167,855.308814377579,2.265344754101151,3.6390930576319973,225.03392041992555,0.7326732673267327,0.7323943661971831,0.8846153846153846,0.3157894736842105,50.86206896551724,50.85958020775215,50.86383506649702,50.70422535211267,0.550420168067227,0.44957983193277307,8.133979109981544,7.351217861035273,0.44170772052802254,0.5582922794719777,16.505214970188092,18.55600586158976,0.459439540557581,0.540560459442419,13.011220876108,14.113216457912023,1.2092573308176469,0.5030497241462584,1.3220491427274572,1.2365269255472349,0.856534224832366,0.4139754791961847,-0.6700074825115248,6.798422375103737e-05,0.016317843813935654,0.8673105742014133,1.8946168546677626,2.9038807616802456,1.2901057634684108,1.4811188803472752,1.2058033137204924,1.7315018124510575,1.2663167753396312,1.63295738479104,2.802324344156593,0.9888432895175933,102.36486486486487
2025-08-13 15:43:57,586.3366336633663,19.116630052246542,,,,,,,15.459624833740307,15.53718251176964,0.03260350616813409,0.026366465859638144,590.0,14.825999999999999,0.025128813559322033,30.0,1.2365520029001544,570.0,600.0,0.0,10.891089108910892,540.0,640.0,4.391304347826087,54.6875,,,0.05411852158724192,0.05164676699509872,0.0016857940625315242,0.10745108264487216,1.0478588445309223,0.5036572946045099,0.4806537609843565,-2.9633276798557855,10.986447114605348,24.839993005740816,0.44228865572008214,857.3509065538891,2.2609668755168912,3.640128721369701,224.64960549620497,0.7425742574257426,0.7361111111111112,0.8867924528301887,0.3333333333333333,50.427350427350426,50.428391642441994,50.425979168667766,51.388888888888886,0.5481171548117155,0.4518828451882844,8.133979109981544,7.385489458759962,0.4403762758756171,0.559623724124383,16.484031146181533,18.58230259405356,0.45800473742221265,0.5419952625777874,12.997786330562198,14.13943818265818,1.274891870064241,0.12873269038740132,1.277674068921713,1.276688195190977,0.9971221112219859,0.1255506836734681,-0.5076583013045806,2.845660313736142e-05,0.002091401850294059,0.8596623670856518,1.8405496333974873,2.90909300556273,1.2802692779488243,1.3828865481616084,1.1582625699497993,1.7484543498239606,1.2806915011246145,1.6365631231749092,2.8170387345758727,1.0547661754854327,102.33029381965552
2025-08-13 15:43:58,586.1386138613861,19.18177765639582,,,,,,,15.588457268119896,15.666666666666666,0.03272566796108071,0.02659517202838023,590.0,14.825999999999999,0.025128813559322033,30.0,1.230511610383964,570.0,600.0,0.0,10.891089108910892,540.0,640.0,4.391304347826087,54.6875,,,0.052034412223219875,0.047792934153026906,0.0017208289420039748,0.10154817531825075,1.0887469695125287,0.512411100053198,0.47064296333483524,-3.04087747147772,11.078006238589243,24.869254069629797,0.44544987990281726,865.514279293689,2.24492147178975,3.644244347242295,223.31808979322625,0.7425742574257426,0.7397260273972602,0.8888888888888888,0.3157894736842105,49.579831932773125,49.580632338793095,49.579435413760116,53.42465753424658,0.5473251028806584,0.4526748971193415,8.195835355332436,7.453559924999298,0.43784838190741393,0.5621516180925861,16.456013453685518,18.64616365883125,0.4559752723853393,0.5440247276146607,12.99946337276266,14.19920727976521,1.2843130218434073,0.30802400358265825,1.3322769249547581,1.336957212525847,0.7703039942498284,0.044809759815235495,-0.48480544530084646,1.1711365872846615e-05,0.004787559094775099,0.8721837537633883,1.987068221548821,2.914040668486348,1.2851536878267047,1.4073063128534973,1.1744455196515753,1.7033895259290919,1.3033708479994681,1.6392151772798176,2.8465525066347808,0.9888432895175933,102.36486486486487
2025-08-13 15:43:59,585.7,19.08275439111228,,,,,,,15.634719199411432,15.712973840032541,0.03258110703621697,0.026694074098363378,580.0,14.825999999999999,0.02556206896551724,30.0,1.2205370718669928,570.0,600.0,0.0,11.0,540.0,640.0,4.166666666666667,54.6875,,,0.05191759720816362,0.033668255524157205,0.001643465315394161,0.087229318047715,1.5420340733398672,0.5951851782191437,0.3859740770384156,-3.391199858135731,11.110750354893833,24.695006201090596,0.44991891333897105,861.9903459562892,2.222622722345071,3.6424725118405754,219.5507276439856,0.75,0.75,0.8888888888888888,0.3333333333333333,49.152542372881356,49.150255183680784,49.15560514337422,54.166666666666664,0.5454545454545453,0.4545454545454545,8.206518066482897,7.491491772643939,0.4363739820159784,0.5636260179840217,16.313177583567512,18.53978339676311,0.45474010336405973,0.5452598966359402,12.912526895393476,14.139413307815937,1.2352227726670615,0.26278512920718455,1.0286629631698636,1.1600555277734559,1.0,-0.6535003244803885,0.0,0.0001500666061766755,0.011078978830482204,0.8802694306110719,1.9789710113162013,2.9039024648528176,1.2770086821582953,1.4298069184215063,1.35943961355797,1.6304443088737175,1.290617683502567,1.6515884016926183,2.843172214735857,0.9965784284662087,102.44152296397473
2025-08-13 15:44:00,585.3465346534654,19.003386878956263,,,,,,,15.459624833740307,15.537182511769641,0.03246519070998956,0.02641106407658611,580.0,14.825999999999999,0.02556206896551724,30.0,1.2292269109585228,570.0,600.0,0.0,10.891089108910892,540.0,640.0,4.04,54.6875,,,0.05281396030133343,0.031985687928902475,0.0019147647914406108,0.08671441302167651,1.6511747509926273,0.6090563086453831,0.36886241645788254,-3.4424667284513153,10.986447114605348,24.620247067333946,0.44623626580832026,849.7663883351793,2.2409653285095112,3.636269658968467,220.6924802289334,0.7524752475247525,0.75,0.8888888888888888,0.3888888888888889,49.572649572649574,49.55892572492095,49.58654860241932,54.166666666666664,0.5523012552301255,0.4476987447698745,8.164965809277259,7.351217861035273,0.43518167956740184,0.5648183204325983,16.241558802135717,18.503197921800794,0.45463121617020674,0.5453687838297933,12.85408298926646,14.07850733163387,1.263242771996232,0.1382845888226607,1.1731898069702327,1.2155696535737208,1.0,0.32985400226753114,-0.19353167287616457,1.7242338358131256e-05,0.0021833142379159283,0.9116759393056455,2.094945728215801,2.892239681188003,1.260731518178898,1.5504675999413795,1.3725060061762913,1.6156066463187309,1.2899501003014966,1.656989541036998,2.8170387345758727,0.9888432895175933,102.50338294993233
2025-08-13 15:44:01,584.8514851485148,19.163186654945395,,,,,,,15.198684153570664,15.274921679774083,0.032765902355670985,0.025987254097014342,580.0,14.825999999999999,0.02556206896551724,30.0,1.2608451140451749,570.0,600.0,0.0,10.891089108910892,540.0,640.0,4.208333333333333,54.6875,,,0.05127722300271091,0.027347567059134742,0.0017815731337538305,0.08040636319559949,1.875019554457335,0.6377259331823284,0.3401169506026288,-3.599127709861268,10.801000701861662,24.95440286246542,0.4328294594501291,846.7613936326214,2.310378783529222,3.634731158984967,230.616491716324,0.7326732673267327,0.726027397260274,0.8679245283018868,0.3157894736842105,49.56521739130435,49.55174068207505,49.57891749629267,53.42465753424658,0.5497835497835497,0.4502164502164503,8.00883350691061,7.247430753394786,0.4383772374471812,0.5616227625528187,16.52232572838181,18.701202494692012,0.4559558125397031,0.544044187460297,12.983232679424672,14.182034890535407,1.2279414672388984,0.2527906505572284,1.2826136103466217,1.3119158316501354,0.8327356476968983,-0.056723983451584914,-0.3840850275161583,4.614236376542679e-05,0.005306323455973633,0.8796628911262974,1.9383629434199305,2.902209122935205,1.2501906106954943,0.7592438080220101,1.0668393041009827,1.5027577783714545,1.2793674472529892,1.6600197037361144,2.787637457763678,0.9229204035497537,102.59014728288471
2025-08-13 15:44:02,584.8514851485148,19.42235111340224,,,,,,,15.684387141358123,15.763402186230246,0.033209031021730596,0.026817726447895218,580.0,14.825999999999999,0.02556206896551724,30.0,1.2383238782845067,570.0,600.0,0.0,12.871287128712872,540.0,640.0,4.391304347826087,54.6875,,,0.04979834669589486,0.022930831246232908,0.0017107191270185158,0.07443989706914629,2.1716764717840644,0.6689738790159503,0.3080449080273814,-3.775272931298267,11.146408580454253,25.244661401827702,0.44153527761902395,884.0043073545095,2.264824693946299,3.653424491101264,228.6989301326895,0.7425742574257426,0.7361111111111112,0.8867924528301887,0.3157894736842105,50.0,49.997153227923334,50.0028974976732,52.77777777777778,0.548780487804878,0.45121951219512196,8.257228238447704,7.487363091276264,0.4413529449058517,0.5586470550941482,16.771139231164682,18.868540435916557,0.4588794567062817,0.5411205432937181,13.218413847601559,14.354135714880647,1.190960796771722,0.16365202509230037,1.0507811687168012,1.1313399742362185,1.0,0.38445140035242975,-0.007743301838264986,4.202721349607927e-05,0.004076095423049957,0.8234660486432275,1.8484548129046006,2.9142800960586865,1.2577769869940518,1.435004596951443,1.2618033943925806,1.585736300516958,1.285182724104548,1.6718718631864067,3.189345051209232,0.9888432895175933,102.59014728288471
2025-08-13 15:44:03,584.6534653465346,19.471227821359573,,,,,,,15.524174696260024,15.602058916189312,0.03330387823805787,0.026552779751435437,580.0,14.825999999999999,0.02556206896551724,30.0,1.254252042528898,570.0,600.0,0.0,11.881188118811881,540.0,640.0,4.391304347826087,54.6875,,,0.049190889728091824,0.02106005212222295,0.0017046179303565612,0.07195555978067134,2.33574396884729,0.6836287547207083,0.2926813742595619,-3.860377297340009,11.032321660109497,25.21533524094279,0.43752429046416297,873.9398341682465,2.285587387477653,3.6484516448980817,230.52740879087847,0.7425742574257426,0.7361111111111112,0.8867924528301887,0.3157894736842105,50.427350427350426,50.44222243701012,50.41284769414717,52.77777777777778,0.5601659751037342,0.43983402489626544,8.257228238447704,7.316785737969476,0.4423852380233695,0.5576147619766306,16.771235596530847,18.829200404658394,0.4613098119220487,0.5386901880779511,13.218474980423453,14.284154532455558,1.1728793351335662,0.202963697063258,1.1957075999929563,1.1452506402840474,0.9975271431319876,0.3122611111133462,-0.7486009096157868,3.0459609745664442e-05,0.0035685322926616893,0.8459594544279798,1.8484548129046003,2.9209293748576406,1.2644084346345212,0.0,1.2704365874064227,1.5935233584695825,1.2784210667731912,1.6671492828672667,2.395484630539145,0.9229204035497537,102.62489415749366
2025-08-13 15:44:04,584.950495049505,19.16370331518612,,,,,,,15.297058540778355,15.368865286741901,0.032761239587572745,0.026151031019272408,580.0,14.825999999999999,0.02556206896551724,30.0,1.252770476369702,570.0,600.0,0.0,10.891089108910892,540.0,640.0,3.8846153846153846,54.6875,,,0.04818824028825028,0.01811279185857171,0.0017212971860795898,0.06802232933290157,2.660453488590476,0.7084179674650191,0.26627714805130576,-4.011136857810407,10.867428863397729,24.555029931757264,0.4425744498622164,838.3341284847686,2.2595068475175712,3.63038725655819,221.92903308721782,0.7623762376237624,0.7534246575342465,0.8909090909090909,0.4117647058823529,51.724137931034484,51.810588540037685,51.64115240988097,50.68493150684932,0.5641025641025642,0.435897435897436,8.164965809277259,7.177405625652733,0.4842350733766669,0.5157649266233331,17.087108969316397,17.634630759395048,0.497324069923801,0.5026759300761989,13.39096635041623,13.462825734877383,1.2290618818849075,0.287490059935156,1.2765328385542434,1.3728069118524855,0.491803528406324,-0.5061047328820787,-0.165122079977454,4.408938807622419e-05,0.006357919588983232,0.8346193746814459,1.712295297873808,2.8954923982044707,1.2689229398722963,1.0693111638338362,1.2606663261129054,1.5381873420833585,1.2724594912596308,1.6744179255790623,2.1377981715084156,0.9229204035497537,102.57278266756938
2025-08-13 15:44:05,585.7425742574258,18.29461858872523,,,,,,,15.264337522473747,15.33300394903132,0.03123320617750588,0.02605980543897648,580.0,14.825999999999999,0.02556206896551724,30.0,1.198520313232722,570.0,600.0,0.0,10.891089108910892,540.0,640.0,3.740740740740741,54.6875,,,0.047334840699772576,0.016112522597977755,0.0017677313485290713,0.0652150946462794,2.9377672187540305,0.7258264510158629,0.2470673804181467,-4.128158508205619,10.842071068320157,23.174677054182585,0.467841301217329,789.3612687283572,2.137476955108468,3.6042459231915256,198.1413525815851,0.7623762376237624,0.75,0.8888888888888888,0.4117647058823529,52.17391304347827,52.26700405675586,52.08434696570128,50.0,0.5665236051502145,0.4334763948497854,8.164965809277259,7.1421356056925305,0.4846998749282956,0.5153001250717046,16.13430062214215,16.63580475961412,0.4994060429346107,0.500593957065389,12.78636623971649,12.801564377256804,1.1511952267465668,0.2704502946043612,1.1196940269183848,1.092731283186991,1.0046038721403412,0.49450080914033956,-0.5996957454634584,6.0039629443573475e-05,0.006657797050038388,0.8725063519837928,1.7186372043990925,2.8042473846877534,1.3174011976286917,0.9333850562353393,1.2280453937268798,1.541688885591299,1.2592902528275223,1.689828601260299,2.129240287015761,0.9888432895175933,102.43407707910751
2025-08-13 15:44:06,586.6,17.128156274793195,,,,,,,14.97472618255253,15.049564233965075,0.029199038995556075,0.02552800235689146,580.0,14.825999999999999,0.02556206896551724,20.0,1.1438043050663382,570.0,600.0,0.0,10.0,560.0,640.0,3.7037037037037037,39.0625,,,0.046649708095612426,0.015187585682144556,0.001736395480125628,0.0635736892578826,3.071568389599714,0.7337895384107861,0.23889734667650142,-4.187276916274597,10.641648923739233,21.829581128480186,0.4874875455056486,729.8005767481532,2.0513344581198387,3.5701743122056047,179.11908790069583,0.76,0.7681159420289856,0.9056603773584906,0.3888888888888889,50.90909090909091,50.92307079325943,50.89482035887162,50.72463768115942,0.5495495495495496,0.45045045045045046,7.889543583705185,7.142857142857142,0.46300261717820607,0.536997382821794,14.853784724268781,15.996740030705546,0.4796232218377547,0.5203767781622454,11.892851184516356,12.387818608884345,1.161875642065578,0.44035765974473184,1.2578013119278575,1.2184553009662176,0.8145571939658875,0.21489180591650126,-0.5893501227716764,5.0153565353083046e-05,0.012434109728944171,0.8888359975963835,1.7240412951731041,2.7016645281818357,1.3194507423269943,1.2042165842863053,1.1696426371677855,1.3917965769974057,1.0211589736618543,1.67744128431313,2.4966019751678292,0.9965784284662087,102.28435049437437
2025-08-13 15:44:07,586.8,17.108093660220263,,,,,,,14.907119849998598,14.981607634219705,0.029154897171472842,0.02540408972392399,580.0,14.825999999999999,0.02556206896551724,20.0,1.147645811690571,570.0,600.0,0.0,10.0,560.0,640.0,3.5714285714285716,39.0625,,,0.046007382956011304,0.014860222851428824,0.0017670182614242008,0.06263462406886433,3.0960089506051824,0.7345359478078447,0.23725252721387116,-4.209067243073559,10.593596351232902,21.83689845177175,0.48512367150626123,726.7486741752123,2.0613300457903825,3.5683543581112884,180.0522195420424,0.76,0.7571428571428572,0.9056603773584906,0.3333333333333333,49.09090909090911,49.08730012077008,49.095307710948795,52.85714285714286,0.5363636363636363,0.46363636363636357,7.759128922285867,7.213932098830055,0.4607173236777247,0.5392826763222753,14.822048358058183,16.03611600308428,0.4751308090881874,0.5248691909118127,11.829987302640445,12.433781258951486,1.1257502156242838,0.41673230750197376,1.2140536131009307,1.2646633142616315,0.6554765717793307,-0.20563891256068167,-0.3785558492835091,6.787908324358945e-05,0.012713443487792865,0.89076641926088,1.6889499753618338,2.7023969265511067,1.3370761275212875,1.099250044116011,1.1255535357973614,1.4099815151560289,1.0202349565549,1.6763808989588496,3.5873201933211605,0.9301398665684615,102.24948875255625
2025-08-13 15:44:08,586.5346534653465,16.99621390571185,,,,,,,14.866068747318506,14.940623220676647,0.028977339710953696,0.02534559323901366,580.0,14.825999999999999,0.02556206896551724,20.0,1.1432890695314168,570.0,600.0,0.0,9.900990099009901,560.0,640.0,3.3666666666666667,39.0625,,,0.04562018727503471,0.014965345026909164,0.0018195695214940273,0.0624051018234379,3.0483886066779697,0.7310329755427277,0.23980964039207014,-4.202018082352929,10.56461599449365,21.71195732560957,0.48658054343320445,720.6137842085632,2.0551582127477226,3.5646726751983278,178.48602965021834,0.7524752475247525,0.7464788732394366,0.9056603773584906,0.3888888888888889,50.450450450450454,50.452310095340415,50.448361621054794,50.70422535211267,0.5429864253393665,0.4570135746606335,7.784989441615228,7.1421356056925305,0.46189368859747804,0.538106311402522,14.756045670788085,15.9269647789749,0.47741833349214735,0.5225816665078526,11.79718068956402,12.342574854559482,1.112980931700875,0.27897215964930955,1.0551172268785338,1.0500501166041354,1.0034427733934803,0.5360256851559384,-0.518163498037826,5.7197766059366164e-05,0.006907466317080009,0.9273389853548379,1.7287013332609182,2.6788823786243907,1.3417238024287899,1.1455474333111522,1.1249050370821652,1.420870948517776,1.0025636351572356,1.6793480307693154,2.7291523505794633,0.9888432895175933,102.29574611748819
